# Temperatura_=_-36.8
# Concentracion g/m^3_=_7400.0
# C_Vs_to_Am_M_A/Vsm_=_254322799225.57578
# pendiente_HvsI_1/m_=_3716.3
# ordenada_HvsI_A/m_=_1297.0
# frecuencia_Hz_=_136122.58838757515

Tiempo_(s)	Campo_(V.s)	Magnetizacion_(V.s)	Campo_(kA/m)	Magnetizacion_(A/m)
0.000000e+00	-7.132600e-06	-1.316169e-09	-3.842190e+01	-3.293910e+02
1.000000e-08	-7.132799e-06	-1.314847e-09	-3.842297e+01	-3.295098e+02
2.000000e-08	-7.132623e-06	-1.312866e-09	-3.842203e+01	-3.296173e+02
3.000000e-08	-7.131919e-06	-1.310752e-09	-3.841824e+01	-3.297128e+02
4.000000e-08	-7.130480e-06	-1.310380e-09	-3.841048e+01	-3.297957e+02
5.000000e-08	-7.128209e-06	-1.311348e-09	-3.839825e+01	-3.298655e+02
6.000000e-08	-7.125205e-06	-1.312687e-09	-3.838206e+01	-3.299217e+02
7.000000e-08	-7.121767e-06	-1.317068e-09	-3.836355e+01	-3.299638e+02
8.000000e-08	-7.117958e-06	-1.315253e-09	-3.834303e+01	-3.299913e+02
9.000000e-08	-7.113478e-06	-1.285551e-09	-3.831890e+01	-3.300040e+02
1.000000e-07	-7.108258e-06	-1.264731e-09	-3.829078e+01	-3.300016e+02
1.100000e-07	-7.102535e-06	-1.319424e-09	-3.825995e+01	-3.299837e+02
1.200000e-07	-7.096528e-06	-1.363193e-09	-3.822759e+01	-3.299502e+02
1.300000e-07	-7.090284e-06	-1.291814e-09	-3.819395e+01	-3.299011e+02
1.400000e-07	-7.083407e-06	-1.233131e-09	-3.815691e+01	-3.298361e+02
1.500000e-07	-7.075899e-06	-1.316280e-09	-3.811647e+01	-3.297553e+02
1.600000e-07	-7.068219e-06	-1.377120e-09	-3.807510e+01	-3.296586e+02
1.700000e-07	-7.060183e-06	-1.262433e-09	-3.803181e+01	-3.295461e+02
1.800000e-07	-7.051495e-06	-1.193066e-09	-3.798500e+01	-3.294178e+02
1.900000e-07	-7.041985e-06	-1.323268e-09	-3.793378e+01	-3.292737e+02
2.000000e-07	-7.032109e-06	-1.389770e-09	-3.788058e+01	-3.291139e+02
2.100000e-07	-7.021849e-06	-1.253983e-09	-3.782531e+01	-3.289385e+02
2.200000e-07	-7.010687e-06	-1.200983e-09	-3.776518e+01	-3.287474e+02
2.300000e-07	-6.998938e-06	-1.321413e-09	-3.770189e+01	-3.285409e+02
2.400000e-07	-6.986771e-06	-1.336741e-09	-3.763635e+01	-3.283187e+02
2.500000e-07	-6.974008e-06	-1.229156e-09	-3.756760e+01	-3.280811e+02
2.600000e-07	-6.960551e-06	-1.252509e-09	-3.749511e+01	-3.278278e+02
2.700000e-07	-6.946471e-06	-1.336711e-09	-3.741926e+01	-3.275590e+02
2.800000e-07	-6.931815e-06	-1.281851e-09	-3.734031e+01	-3.272745e+02
2.900000e-07	-6.916407e-06	-1.235724e-09	-3.725731e+01	-3.269742e+02
3.000000e-07	-6.900267e-06	-1.304687e-09	-3.717037e+01	-3.266581e+02
3.100000e-07	-6.883620e-06	-1.293228e-09	-3.708070e+01	-3.263261e+02
3.200000e-07	-6.866537e-06	-1.210126e-09	-3.698867e+01	-3.259781e+02
3.300000e-07	-6.849027e-06	-1.271477e-09	-3.689435e+01	-3.256140e+02
3.400000e-07	-6.831050e-06	-1.344001e-09	-3.679751e+01	-3.252337e+02
3.500000e-07	-6.812676e-06	-1.246936e-09	-3.669853e+01	-3.248372e+02
3.600000e-07	-6.793805e-06	-1.201558e-09	-3.659688e+01	-3.244244e+02
3.700000e-07	-6.774417e-06	-1.304732e-09	-3.649244e+01	-3.239955e+02
3.800000e-07	-6.754740e-06	-1.300061e-09	-3.638645e+01	-3.235505e+02
3.900000e-07	-6.734742e-06	-1.205428e-09	-3.627872e+01	-3.230895e+02
4.000000e-07	-6.714268e-06	-1.245887e-09	-3.616843e+01	-3.226128e+02
4.100000e-07	-6.693294e-06	-1.302289e-09	-3.605545e+01	-3.221207e+02
4.200000e-07	-6.671869e-06	-1.238519e-09	-3.594003e+01	-3.216134e+02
4.300000e-07	-6.650069e-06	-1.225149e-09	-3.582260e+01	-3.210914e+02
4.400000e-07	-6.627764e-06	-1.276212e-09	-3.570245e+01	-3.205552e+02
4.500000e-07	-6.604902e-06	-1.237823e-09	-3.557930e+01	-3.200054e+02
4.600000e-07	-6.581641e-06	-1.206878e-09	-3.545400e+01	-3.194426e+02
4.700000e-07	-6.558091e-06	-1.265268e-09	-3.532714e+01	-3.188676e+02
4.800000e-07	-6.534239e-06	-1.261037e-09	-3.519865e+01	-3.182810e+02
4.900000e-07	-6.509831e-06	-1.201607e-09	-3.506717e+01	-3.176837e+02
5.000000e-07	-6.484746e-06	-1.223618e-09	-3.493204e+01	-3.170766e+02
5.100000e-07	-6.458983e-06	-1.249622e-09	-3.479326e+01	-3.164603e+02
5.200000e-07	-6.432459e-06	-1.210203e-09	-3.465038e+01	-3.158359e+02
5.300000e-07	-6.405321e-06	-1.205854e-09	-3.450419e+01	-3.152041e+02
5.400000e-07	-6.377783e-06	-1.230765e-09	-3.435585e+01	-3.145658e+02
5.500000e-07	-6.349952e-06	-1.210043e-09	-3.420593e+01	-3.139217e+02
5.600000e-07	-6.321814e-06	-1.197856e-09	-3.405436e+01	-3.132725e+02
5.700000e-07	-6.293180e-06	-1.213992e-09	-3.390011e+01	-3.126188e+02
5.800000e-07	-6.264081e-06	-1.199055e-09	-3.374336e+01	-3.119611e+02
5.900000e-07	-6.234629e-06	-1.180353e-09	-3.358471e+01	-3.112998e+02
6.000000e-07	-6.204680e-06	-1.193027e-09	-3.342338e+01	-3.106352e+02
6.100000e-07	-6.174214e-06	-1.193477e-09	-3.325927e+01	-3.099675e+02
6.200000e-07	-6.143379e-06	-1.179277e-09	-3.309317e+01	-3.092965e+02
6.300000e-07	-6.112123e-06	-1.178781e-09	-3.292480e+01	-3.086222e+02
6.400000e-07	-6.080565e-06	-1.174883e-09	-3.275480e+01	-3.079441e+02
6.500000e-07	-6.048816e-06	-1.164367e-09	-3.258377e+01	-3.072618e+02
6.600000e-07	-6.016741e-06	-1.164877e-09	-3.241099e+01	-3.065746e+02
6.700000e-07	-5.984203e-06	-1.163780e-09	-3.223571e+01	-3.058817e+02
6.800000e-07	-5.951021e-06	-1.155751e-09	-3.205697e+01	-3.051821e+02
6.900000e-07	-5.916975e-06	-1.152043e-09	-3.187357e+01	-3.044746e+02
7.000000e-07	-5.882237e-06	-1.147315e-09	-3.168644e+01	-3.037580e+02
7.100000e-07	-5.847036e-06	-1.141255e-09	-3.149682e+01	-3.030309e+02
7.200000e-07	-5.811499e-06	-1.139377e-09	-3.130539e+01	-3.022918e+02
7.300000e-07	-5.775816e-06	-1.134511e-09	-3.111318e+01	-3.015391e+02
7.400000e-07	-5.739914e-06	-1.128053e-09	-3.091978e+01	-3.007711e+02
7.500000e-07	-5.703699e-06	-1.127886e-09	-3.072470e+01	-2.999863e+02
7.600000e-07	-5.667021e-06	-1.126206e-09	-3.052712e+01	-2.991827e+02
7.700000e-07	-5.629762e-06	-1.118250e-09	-3.032641e+01	-2.983588e+02
7.800000e-07	-5.592059e-06	-1.111337e-09	-3.012331e+01	-2.975129e+02
7.900000e-07	-5.553972e-06	-1.107128e-09	-2.991814e+01	-2.966432e+02
8.000000e-07	-5.515510e-06	-1.103527e-09	-2.971096e+01	-2.957482e+02
8.100000e-07	-5.476557e-06	-1.101682e-09	-2.950113e+01	-2.948263e+02
8.200000e-07	-5.437146e-06	-1.098057e-09	-2.928883e+01	-2.938762e+02
8.300000e-07	-5.397543e-06	-1.091190e-09	-2.907549e+01	-2.928966e+02
8.400000e-07	-5.357783e-06	-1.086338e-09	-2.886132e+01	-2.918863e+02
8.500000e-07	-5.317847e-06	-1.083483e-09	-2.864619e+01	-2.908442e+02
8.600000e-07	-5.277481e-06	-1.078635e-09	-2.842874e+01	-2.897696e+02
8.700000e-07	-5.236617e-06	-1.072553e-09	-2.820862e+01	-2.886616e+02
8.800000e-07	-5.195352e-06	-1.066664e-09	-2.798633e+01	-2.875199e+02
8.900000e-07	-5.153400e-06	-1.062367e-09	-2.776034e+01	-2.863439e+02
9.000000e-07	-5.110724e-06	-1.058769e-09	-2.753046e+01	-2.851334e+02
9.100000e-07	-5.067553e-06	-1.053361e-09	-2.729790e+01	-2.838884e+02
9.200000e-07	-5.024141e-06	-1.046327e-09	-2.706405e+01	-2.826091e+02
9.300000e-07	-4.980525e-06	-1.040774e-09	-2.682910e+01	-2.812955e+02
9.400000e-07	-4.936529e-06	-1.036852e-09	-2.659211e+01	-2.799481e+02
9.500000e-07	-4.892208e-06	-1.032078e-09	-2.635335e+01	-2.785673e+02
9.600000e-07	-4.847579e-06	-1.026366e-09	-2.611295e+01	-2.771537e+02
9.700000e-07	-4.802657e-06	-1.019662e-09	-2.587096e+01	-2.757079e+02
9.800000e-07	-4.757468e-06	-1.012975e-09	-2.562754e+01	-2.742308e+02
9.900000e-07	-4.711919e-06	-1.006981e-09	-2.538218e+01	-2.727231e+02
1.000000e-06	-4.665973e-06	-1.001236e-09	-2.513467e+01	-2.711856e+02
1.010000e-06	-4.619620e-06	-9.954276e-10	-2.488498e+01	-2.696193e+02
1.020000e-06	-4.572875e-06	-9.896789e-10	-2.463317e+01	-2.680248e+02
1.030000e-06	-4.525953e-06	-9.843242e-10	-2.438041e+01	-2.664032e+02
1.040000e-06	-4.478754e-06	-9.790207e-10	-2.412616e+01	-2.647553e+02
1.050000e-06	-4.431274e-06	-9.736492e-10	-2.387039e+01	-2.630818e+02
1.060000e-06	-4.383628e-06	-9.675056e-10	-2.361373e+01	-2.613837e+02
1.070000e-06	-4.335759e-06	-9.605814e-10	-2.335587e+01	-2.596615e+02
1.080000e-06	-4.287513e-06	-9.543360e-10	-2.309598e+01	-2.579161e+02
1.090000e-06	-4.238734e-06	-9.482286e-10	-2.283322e+01	-2.561480e+02
1.100000e-06	-4.189530e-06	-9.412795e-10	-2.256817e+01	-2.543578e+02
1.110000e-06	-4.140020e-06	-9.336581e-10	-2.230147e+01	-2.525461e+02
1.120000e-06	-4.090135e-06	-9.252524e-10	-2.203274e+01	-2.507133e+02
1.130000e-06	-4.039643e-06	-9.166806e-10	-2.176075e+01	-2.488598e+02
1.140000e-06	-3.988565e-06	-9.097477e-10	-2.148561e+01	-2.469860e+02
1.150000e-06	-3.937116e-06	-9.033475e-10	-2.120846e+01	-2.450921e+02
1.160000e-06	-3.885484e-06	-8.963087e-10	-2.093033e+01	-2.431785e+02
1.170000e-06	-3.833713e-06	-8.888044e-10	-2.065145e+01	-2.412455e+02
1.180000e-06	-3.781710e-06	-8.802907e-10	-2.037132e+01	-2.392931e+02
1.190000e-06	-3.729440e-06	-8.709815e-10	-2.008975e+01	-2.373217e+02
1.200000e-06	-3.676784e-06	-8.619960e-10	-1.980611e+01	-2.353313e+02
1.210000e-06	-3.623739e-06	-8.543231e-10	-1.952036e+01	-2.333222e+02
1.220000e-06	-3.570495e-06	-8.477439e-10	-1.923355e+01	-2.312944e+02
1.230000e-06	-3.517056e-06	-8.408579e-10	-1.894569e+01	-2.292482e+02
1.240000e-06	-3.463372e-06	-8.335557e-10	-1.865650e+01	-2.271836e+02
1.250000e-06	-3.409427e-06	-8.255702e-10	-1.836591e+01	-2.251008e+02
1.260000e-06	-3.355241e-06	-8.162019e-10	-1.807402e+01	-2.229999e+02
1.270000e-06	-3.300836e-06	-8.067529e-10	-1.778095e+01	-2.208810e+02
1.280000e-06	-3.246184e-06	-7.978668e-10	-1.748655e+01	-2.187443e+02
1.290000e-06	-3.191183e-06	-7.888553e-10	-1.719027e+01	-2.165899e+02
1.300000e-06	-3.135936e-06	-7.796540e-10	-1.689267e+01	-2.144178e+02
1.310000e-06	-3.080587e-06	-7.709803e-10	-1.659451e+01	-2.122280e+02
1.320000e-06	-3.025080e-06	-7.619296e-10	-1.629551e+01	-2.100207e+02
1.330000e-06	-2.969433e-06	-7.517048e-10	-1.599575e+01	-2.077957e+02
1.340000e-06	-2.913641e-06	-7.413429e-10	-1.569520e+01	-2.055529e+02
1.350000e-06	-2.857719e-06	-7.315506e-10	-1.539397e+01	-2.032923e+02
1.360000e-06	-2.801706e-06	-7.225931e-10	-1.509223e+01	-2.010136e+02
1.370000e-06	-2.745520e-06	-7.148178e-10	-1.478957e+01	-1.987165e+02
1.380000e-06	-2.689083e-06	-7.075942e-10	-1.448556e+01	-1.964006e+02
1.390000e-06	-2.632562e-06	-6.995259e-10	-1.418109e+01	-1.940654e+02
1.400000e-06	-2.575875e-06	-6.890853e-10	-1.387573e+01	-1.917103e+02
1.410000e-06	-2.518955e-06	-6.777653e-10	-1.356911e+01	-1.893347e+02
1.420000e-06	-2.461829e-06	-6.679448e-10	-1.326139e+01	-1.869377e+02
1.430000e-06	-2.404340e-06	-6.591168e-10	-1.295170e+01	-1.845184e+02
1.440000e-06	-2.346602e-06	-6.509797e-10	-1.264068e+01	-1.820759e+02
1.450000e-06	-2.288491e-06	-6.430038e-10	-1.232765e+01	-1.796089e+02
1.460000e-06	-2.229989e-06	-6.339616e-10	-1.201251e+01	-1.771163e+02
1.470000e-06	-2.171354e-06	-6.243901e-10	-1.169665e+01	-1.745968e+02
1.480000e-06	-2.112481e-06	-6.153990e-10	-1.137951e+01	-1.720490e+02
1.490000e-06	-2.053263e-06	-6.055663e-10	-1.106052e+01	-1.694714e+02
1.500000e-06	-1.993843e-06	-5.944261e-10	-1.074044e+01	-1.668625e+02
1.510000e-06	-1.934344e-06	-5.845426e-10	-1.041993e+01	-1.642208e+02
1.520000e-06	-1.874810e-06	-5.758347e-10	-1.009923e+01	-1.615446e+02
1.530000e-06	-1.815243e-06	-5.662466e-10	-9.778352e+00	-1.588324e+02
1.540000e-06	-1.755649e-06	-5.557771e-10	-9.457332e+00	-1.560826e+02
1.550000e-06	-1.695939e-06	-5.456565e-10	-9.135686e+00	-1.532936e+02
1.560000e-06	-1.636063e-06	-5.362431e-10	-8.813148e+00	-1.504640e+02
1.570000e-06	-1.576115e-06	-5.265981e-10	-8.490219e+00	-1.475923e+02
1.580000e-06	-1.516179e-06	-5.167628e-10	-8.167358e+00	-1.446772e+02
1.590000e-06	-1.456199e-06	-5.068418e-10	-7.844257e+00	-1.417173e+02
1.600000e-06	-1.396129e-06	-4.961928e-10	-7.520672e+00	-1.387116e+02
1.610000e-06	-1.335935e-06	-4.853542e-10	-7.196417e+00	-1.356591e+02
1.620000e-06	-1.275638e-06	-4.747725e-10	-6.871611e+00	-1.325589e+02
1.630000e-06	-1.215291e-06	-4.642353e-10	-6.546532e+00	-1.294103e+02
1.640000e-06	-1.154867e-06	-4.536718e-10	-6.221042e+00	-1.262128e+02
1.650000e-06	-1.094447e-06	-4.427084e-10	-5.895569e+00	-1.229660e+02
1.660000e-06	-1.033985e-06	-4.315686e-10	-5.569871e+00	-1.196698e+02
1.670000e-06	-9.733856e-07	-4.200492e-10	-5.243435e+00	-1.163242e+02
1.680000e-06	-9.125902e-07	-4.078810e-10	-4.915943e+00	-1.129293e+02
1.690000e-06	-8.517571e-07	-3.962914e-10	-4.588247e+00	-1.094856e+02
1.700000e-06	-7.910007e-07	-3.854467e-10	-4.260964e+00	-1.059936e+02
1.710000e-06	-7.301999e-07	-3.740507e-10	-3.933442e+00	-1.024541e+02
1.720000e-06	-6.693091e-07	-3.612796e-10	-3.605435e+00	-9.886786e+01
1.730000e-06	-6.083338e-07	-3.478640e-10	-3.276973e+00	-9.523606e+01
1.740000e-06	-5.473266e-07	-3.347057e-10	-2.948340e+00	-9.155987e+01
1.750000e-06	-4.863400e-07	-3.212139e-10	-2.619817e+00	-8.784063e+01
1.760000e-06	-4.253293e-07	-3.073398e-10	-2.291165e+00	-8.407981e+01
1.770000e-06	-3.641890e-07	-2.926925e-10	-1.961814e+00	-8.027898e+01
1.780000e-06	-3.029127e-07	-2.772583e-10	-1.631730e+00	-7.643981e+01
1.790000e-06	-2.416091e-07	-2.623198e-10	-1.301500e+00	-7.256407e+01
1.800000e-06	-1.803587e-07	-2.484938e-10	-9.715567e-01	-6.865356e+01
1.810000e-06	-1.190451e-07	-2.348356e-10	-6.412724e-01	-6.471017e+01
1.820000e-06	-5.766480e-08	-2.199764e-10	-3.106288e-01	-6.073582e+01
1.830000e-06	3.607093e-09	-2.043840e-10	1.943070e-02	-5.673247e+01
1.840000e-06	6.478509e-08	-1.891763e-10	3.489844e-01	-5.270207e+01
1.850000e-06	1.259470e-07	-1.752134e-10	6.784515e-01	-4.864662e+01
1.860000e-06	1.871911e-07	-1.615664e-10	1.008362e+00	-4.456809e+01
1.870000e-06	2.485133e-07	-1.460554e-10	1.338692e+00	-4.046845e+01
1.880000e-06	3.098363e-07	-1.293831e-10	1.669027e+00	-3.634967e+01
1.890000e-06	3.711309e-07	-1.140692e-10	1.999209e+00	-3.221367e+01
1.900000e-06	4.323551e-07	-1.000695e-10	2.329011e+00	-2.806236e+01
1.910000e-06	4.935032e-07	-8.653454e-11	2.658404e+00	-2.389763e+01
1.920000e-06	5.545326e-07	-7.262772e-11	2.987157e+00	-1.972132e+01
1.930000e-06	6.155626e-07	-5.729180e-11	3.315914e+00	-1.553526e+01
1.940000e-06	6.765626e-07	-4.063908e-11	3.644508e+00	-1.134123e+01
1.950000e-06	7.374531e-07	-2.399380e-11	3.972514e+00	-7.140974e+00
1.960000e-06	7.983525e-07	-8.188266e-12	4.300567e+00	-2.936212e+00
1.970000e-06	8.591520e-07	7.277955e-12	4.628081e+00	1.271372e+00
1.980000e-06	9.197758e-07	2.317093e-11	4.954650e+00	5.480128e+00
1.990000e-06	9.802657e-07	3.969049e-11	5.280497e+00	9.688436e+00
2.000000e-06	1.040790e-06	5.551404e-11	5.606532e+00	1.389470e+01
2.010000e-06	1.101374e-06	7.021705e-11	5.932883e+00	1.809737e+01
2.020000e-06	1.161788e-06	8.549402e-11	6.258323e+00	2.229491e+01
2.030000e-06	1.222108e-06	1.017583e-10	6.583256e+00	2.648582e+01
2.040000e-06	1.282333e-06	1.172824e-10	6.907671e+00	3.066862e+01
2.050000e-06	1.342430e-06	1.311206e-10	7.231402e+00	3.484188e+01
2.060000e-06	1.402463e-06	1.444124e-10	7.554792e+00	3.900417e+01
2.070000e-06	1.462368e-06	1.589594e-10	7.877488e+00	4.315411e+01
2.080000e-06	1.522183e-06	1.750113e-10	8.199697e+00	4.729037e+01
2.090000e-06	1.581996e-06	1.906849e-10	8.521899e+00	5.141161e+01
2.100000e-06	1.641786e-06	2.049089e-10	8.843976e+00	5.551658e+01
2.110000e-06	1.701385e-06	2.183970e-10	9.165025e+00	5.960403e+01
2.120000e-06	1.760891e-06	2.315804e-10	9.485573e+00	6.367277e+01
2.130000e-06	1.820435e-06	2.453182e-10	9.806325e+00	6.772164e+01
2.140000e-06	1.879962e-06	2.596717e-10	1.012698e+01	7.174953e+01
2.150000e-06	1.939453e-06	2.737487e-10	1.044745e+01	7.575538e+01
2.160000e-06	1.998842e-06	2.874683e-10	1.076737e+01	7.973817e+01
2.170000e-06	2.058084e-06	3.014188e-10	1.108649e+01	8.369694e+01
2.180000e-06	2.117267e-06	3.156333e-10	1.140530e+01	8.763076e+01
2.190000e-06	2.176307e-06	3.296732e-10	1.172334e+01	9.153875e+01
2.200000e-06	2.235002e-06	3.434743e-10	1.203951e+01	9.542007e+01
2.210000e-06	2.293402e-06	3.565257e-10	1.235410e+01	9.927394e+01
2.220000e-06	2.351404e-06	3.696258e-10	1.266655e+01	1.030996e+02
2.230000e-06	2.408988e-06	3.831770e-10	1.297674e+01	1.068963e+02
2.240000e-06	2.466371e-06	3.958336e-10	1.328585e+01	1.106634e+02
2.250000e-06	2.523473e-06	4.081685e-10	1.359345e+01	1.144002e+02
2.260000e-06	2.580297e-06	4.206555e-10	1.389955e+01	1.181061e+02
2.270000e-06	2.636867e-06	4.324255e-10	1.420428e+01	1.217804e+02
2.280000e-06	2.693267e-06	4.440873e-10	1.450809e+01	1.254226e+02
2.290000e-06	2.749495e-06	4.562210e-10	1.481099e+01	1.290320e+02
2.300000e-06	2.805455e-06	4.688091e-10	1.511243e+01	1.326080e+02
2.310000e-06	2.861345e-06	4.816128e-10	1.541350e+01	1.361500e+02
2.320000e-06	2.917169e-06	4.935505e-10	1.571421e+01	1.396574e+02
2.330000e-06	2.972762e-06	5.052080e-10	1.601368e+01	1.431295e+02
2.340000e-06	3.028079e-06	5.178890e-10	1.631166e+01	1.465656e+02
2.350000e-06	3.083313e-06	5.310437e-10	1.660920e+01	1.499653e+02
2.360000e-06	3.138399e-06	5.438246e-10	1.690593e+01	1.533276e+02
2.370000e-06	3.193214e-06	5.560521e-10	1.720121e+01	1.566520e+02
2.380000e-06	3.247834e-06	5.679364e-10	1.749544e+01	1.599378e+02
2.390000e-06	3.302144e-06	5.802082e-10	1.778800e+01	1.631841e+02
2.400000e-06	3.356218e-06	5.921087e-10	1.807928e+01	1.663903e+02
2.410000e-06	3.410199e-06	6.034112e-10	1.837006e+01	1.695556e+02
2.420000e-06	3.463998e-06	6.155342e-10	1.865987e+01	1.726794e+02
2.430000e-06	3.517513e-06	6.277806e-10	1.894814e+01	1.757608e+02
2.440000e-06	3.570763e-06	6.400851e-10	1.923499e+01	1.787993e+02
2.450000e-06	3.623760e-06	6.521647e-10	1.952048e+01	1.817940e+02
2.460000e-06	3.676350e-06	6.630413e-10	1.980377e+01	1.847445e+02
2.470000e-06	3.728559e-06	6.739143e-10	2.008501e+01	1.876500e+02
2.480000e-06	3.780606e-06	6.850470e-10	2.036538e+01	1.905102e+02
2.490000e-06	3.832492e-06	6.963965e-10	2.064487e+01	1.933245e+02
2.500000e-06	3.884088e-06	7.075806e-10	2.092281e+01	1.960925e+02
2.510000e-06	3.935302e-06	7.177080e-10	2.119869e+01	1.988140e+02
2.520000e-06	3.986183e-06	7.273190e-10	2.147278e+01	2.014887e+02
2.530000e-06	4.036789e-06	7.370884e-10	2.174538e+01	2.041167e+02
2.540000e-06	4.086874e-06	7.471411e-10	2.201518e+01	2.066978e+02
2.550000e-06	4.136302e-06	7.571555e-10	2.228144e+01	2.092322e+02
2.560000e-06	4.185278e-06	7.676300e-10	2.254526e+01	2.117202e+02
2.570000e-06	4.233937e-06	7.786721e-10	2.280738e+01	2.141621e+02
2.580000e-06	4.282246e-06	7.887123e-10	2.306761e+01	2.165584e+02
2.590000e-06	4.330237e-06	7.973027e-10	2.332613e+01	2.189097e+02
2.600000e-06	4.377974e-06	8.057326e-10	2.358328e+01	2.212167e+02
2.610000e-06	4.425394e-06	8.143828e-10	2.383872e+01	2.234802e+02
2.620000e-06	4.472540e-06	8.234834e-10	2.409269e+01	2.257011e+02
2.630000e-06	4.519510e-06	8.333934e-10	2.434570e+01	2.278805e+02
2.640000e-06	4.566191e-06	8.430848e-10	2.459717e+01	2.300193e+02
2.650000e-06	4.612445e-06	8.521063e-10	2.484633e+01	2.321187e+02
2.660000e-06	4.658300e-06	8.608058e-10	2.509334e+01	2.341801e+02
2.670000e-06	4.703807e-06	8.690041e-10	2.533847e+01	2.362045e+02
2.680000e-06	4.749061e-06	8.765448e-10	2.558225e+01	2.381933e+02
2.690000e-06	4.794004e-06	8.842214e-10	2.582435e+01	2.401478e+02
2.700000e-06	4.838675e-06	8.919879e-10	2.606498e+01	2.420694e+02
2.710000e-06	4.883154e-06	8.995146e-10	2.630458e+01	2.439592e+02
2.720000e-06	4.927295e-06	9.070335e-10	2.654236e+01	2.458187e+02
2.730000e-06	4.971175e-06	9.142935e-10	2.677873e+01	2.476490e+02
2.740000e-06	5.014862e-06	9.212208e-10	2.701407e+01	2.494513e+02
2.750000e-06	5.058304e-06	9.281568e-10	2.724808e+01	2.512269e+02
2.760000e-06	5.101339e-06	9.349059e-10	2.747990e+01	2.529767e+02
2.770000e-06	5.143747e-06	9.411391e-10	2.770834e+01	2.547018e+02
2.780000e-06	5.185542e-06	9.472891e-10	2.793348e+01	2.564032e+02
2.790000e-06	5.226822e-06	9.533615e-10	2.815586e+01	2.580817e+02
2.800000e-06	5.267601e-06	9.591001e-10	2.837552e+01	2.597381e+02
2.810000e-06	5.307908e-06	9.645193e-10	2.859265e+01	2.613731e+02
2.820000e-06	5.347821e-06	9.700074e-10	2.880765e+01	2.629873e+02
2.830000e-06	5.387483e-06	9.760421e-10	2.902130e+01	2.645812e+02
2.840000e-06	5.426910e-06	9.827621e-10	2.923369e+01	2.661553e+02
2.850000e-06	5.466066e-06	9.898086e-10	2.944461e+01	2.677101e+02
2.860000e-06	5.504916e-06	9.958459e-10	2.965389e+01	2.692457e+02
2.870000e-06	5.543289e-06	1.000777e-09	2.986060e+01	2.707625e+02
2.880000e-06	5.581259e-06	1.006502e-09	3.006514e+01	2.722606e+02
2.890000e-06	5.618818e-06	1.012984e-09	3.026746e+01	2.737403e+02
2.900000e-06	5.655868e-06	1.019464e-09	3.046704e+01	2.752016e+02
