# Temperatura_=_7.4
# Concentracion g/m^3_=_7400.0
# C_Vs_to_Am_M_A/Vsm_=_254322799225.57578
# pendiente_HvsI_1/m_=_3716.3
# ordenada_HvsI_A/m_=_1297.0
# frecuencia_Hz_=_136111.70318448052

Tiempo_(s)	Campo_(V.s)	Magnetizacion_(V.s)	Campo_(kA/m)	Magnetizacion_(A/m)
0.000000e+00	-7.120296e-06	-1.650300e-09	-3.842824e+01	-4.102836e+02
1.000000e-08	-7.120309e-06	-1.649097e-09	-3.842831e+01	-4.104153e+02
2.000000e-08	-7.120016e-06	-1.646260e-09	-3.842673e+01	-4.105278e+02
3.000000e-08	-7.119280e-06	-1.643375e-09	-3.842276e+01	-4.106207e+02
4.000000e-08	-7.117703e-06	-1.642947e-09	-3.841424e+01	-4.106938e+02
5.000000e-08	-7.115234e-06	-1.644511e-09	-3.840092e+01	-4.107466e+02
6.000000e-08	-7.112188e-06	-1.646528e-09	-3.838448e+01	-4.107788e+02
7.000000e-08	-7.108707e-06	-1.652702e-09	-3.836569e+01	-4.107903e+02
8.000000e-08	-7.104766e-06	-1.648585e-09	-3.834442e+01	-4.107808e+02
9.000000e-08	-7.100146e-06	-1.607424e-09	-3.831949e+01	-4.107503e+02
1.000000e-07	-7.094591e-06	-1.582694e-09	-3.828951e+01	-4.106985e+02
1.100000e-07	-7.088456e-06	-1.659205e-09	-3.825640e+01	-4.106257e+02
1.200000e-07	-7.082318e-06	-1.722171e-09	-3.822327e+01	-4.105317e+02
1.300000e-07	-7.075935e-06	-1.631412e-09	-3.818882e+01	-4.104168e+02
1.400000e-07	-7.068880e-06	-1.548166e-09	-3.815075e+01	-4.102811e+02
1.500000e-07	-7.061283e-06	-1.652020e-09	-3.810974e+01	-4.101249e+02
1.600000e-07	-7.053481e-06	-1.736133e-09	-3.806764e+01	-4.099485e+02
1.700000e-07	-7.045432e-06	-1.590953e-09	-3.802420e+01	-4.097522e+02
1.800000e-07	-7.036771e-06	-1.493934e-09	-3.797745e+01	-4.095365e+02
1.900000e-07	-7.027152e-06	-1.660935e-09	-3.792554e+01	-4.093017e+02
2.000000e-07	-7.016996e-06	-1.761770e-09	-3.787073e+01	-4.090484e+02
2.100000e-07	-7.006705e-06	-1.591567e-09	-3.781519e+01	-4.087769e+02
2.200000e-07	-6.995752e-06	-1.506619e-09	-3.775607e+01	-4.084878e+02
2.300000e-07	-6.983927e-06	-1.652722e-09	-3.769225e+01	-4.081816e+02
2.400000e-07	-6.971502e-06	-1.686274e-09	-3.762520e+01	-4.078588e+02
2.500000e-07	-6.958546e-06	-1.554637e-09	-3.755527e+01	-4.075198e+02
2.600000e-07	-6.944981e-06	-1.571997e-09	-3.748206e+01	-4.071651e+02
2.700000e-07	-6.930948e-06	-1.678177e-09	-3.740633e+01	-4.067952e+02
2.800000e-07	-6.916204e-06	-1.619992e-09	-3.732675e+01	-4.064105e+02
2.900000e-07	-6.900584e-06	-1.556144e-09	-3.724245e+01	-4.060113e+02
3.000000e-07	-6.884356e-06	-1.631372e-09	-3.715487e+01	-4.055980e+02
3.100000e-07	-6.867668e-06	-1.622425e-09	-3.706481e+01	-4.051709e+02
3.200000e-07	-6.850420e-06	-1.525744e-09	-3.697172e+01	-4.047304e+02
3.300000e-07	-6.832752e-06	-1.597731e-09	-3.687636e+01	-4.042766e+02
3.400000e-07	-6.814709e-06	-1.688183e-09	-3.677899e+01	-4.038098e+02
3.500000e-07	-6.796283e-06	-1.571924e-09	-3.667954e+01	-4.033302e+02
3.600000e-07	-6.777407e-06	-1.504956e-09	-3.657767e+01	-4.028380e+02
3.700000e-07	-6.758031e-06	-1.623730e-09	-3.647310e+01	-4.023332e+02
3.800000e-07	-6.738389e-06	-1.630420e-09	-3.636709e+01	-4.018162e+02
3.900000e-07	-6.718290e-06	-1.521077e-09	-3.625861e+01	-4.012868e+02
4.000000e-07	-6.697687e-06	-1.559376e-09	-3.614742e+01	-4.007454e+02
4.100000e-07	-6.676601e-06	-1.626986e-09	-3.603362e+01	-4.001921e+02
4.200000e-07	-6.655013e-06	-1.558502e-09	-3.591711e+01	-3.996269e+02
4.300000e-07	-6.633064e-06	-1.536933e-09	-3.579865e+01	-3.990500e+02
4.400000e-07	-6.610757e-06	-1.590143e-09	-3.567826e+01	-3.984615e+02
4.500000e-07	-6.587945e-06	-1.550025e-09	-3.555514e+01	-3.978617e+02
4.600000e-07	-6.564640e-06	-1.515924e-09	-3.542936e+01	-3.972507e+02
4.700000e-07	-6.540937e-06	-1.581128e-09	-3.530144e+01	-3.966288e+02
4.800000e-07	-6.516847e-06	-1.578437e-09	-3.517142e+01	-3.959961e+02
4.900000e-07	-6.492398e-06	-1.510350e-09	-3.503947e+01	-3.953529e+02
5.000000e-07	-6.467366e-06	-1.531497e-09	-3.490437e+01	-3.946996e+02
5.100000e-07	-6.441545e-06	-1.561223e-09	-3.476502e+01	-3.940363e+02
5.200000e-07	-6.415040e-06	-1.520560e-09	-3.462197e+01	-3.933633e+02
5.300000e-07	-6.387904e-06	-1.517422e-09	-3.447552e+01	-3.926809e+02
5.400000e-07	-6.360304e-06	-1.545078e-09	-3.432656e+01	-3.919894e+02
5.500000e-07	-6.332372e-06	-1.520032e-09	-3.417582e+01	-3.912890e+02
5.600000e-07	-6.304117e-06	-1.502898e-09	-3.402332e+01	-3.905800e+02
5.700000e-07	-6.275498e-06	-1.520032e-09	-3.386887e+01	-3.898623e+02
5.800000e-07	-6.246472e-06	-1.505296e-09	-3.371221e+01	-3.891363e+02
5.900000e-07	-6.216983e-06	-1.486314e-09	-3.355306e+01	-3.884019e+02
6.000000e-07	-6.187100e-06	-1.503385e-09	-3.339178e+01	-3.876591e+02
6.100000e-07	-6.156793e-06	-1.505347e-09	-3.322821e+01	-3.869077e+02
6.200000e-07	-6.125992e-06	-1.487162e-09	-3.306198e+01	-3.861477e+02
6.300000e-07	-6.094664e-06	-1.484916e-09	-3.289290e+01	-3.853787e+02
6.400000e-07	-6.062930e-06	-1.479979e-09	-3.272164e+01	-3.846002e+02
6.500000e-07	-6.031124e-06	-1.466040e-09	-3.254998e+01	-3.838117e+02
6.600000e-07	-5.999055e-06	-1.466911e-09	-3.237690e+01	-3.830127e+02
6.700000e-07	-5.966412e-06	-1.470147e-09	-3.220072e+01	-3.822022e+02
6.800000e-07	-5.933096e-06	-1.462624e-09	-3.202092e+01	-3.813795e+02
6.900000e-07	-5.899001e-06	-1.457523e-09	-3.183691e+01	-3.805436e+02
7.000000e-07	-5.864260e-06	-1.453205e-09	-3.164941e+01	-3.796933e+02
7.100000e-07	-5.829112e-06	-1.445743e-09	-3.145972e+01	-3.788274e+02
7.200000e-07	-5.793659e-06	-1.442659e-09	-3.126838e+01	-3.779447e+02
7.300000e-07	-5.757963e-06	-1.439121e-09	-3.107572e+01	-3.770438e+02
7.400000e-07	-5.721966e-06	-1.431386e-09	-3.088145e+01	-3.761231e+02
7.500000e-07	-5.685597e-06	-1.428094e-09	-3.068517e+01	-3.751813e+02
7.600000e-07	-5.648846e-06	-1.426519e-09	-3.048682e+01	-3.742167e+02
7.700000e-07	-5.611683e-06	-1.418548e-09	-3.028626e+01	-3.732279e+02
7.800000e-07	-5.574001e-06	-1.410215e-09	-3.008288e+01	-3.722133e+02
7.900000e-07	-5.535849e-06	-1.406325e-09	-2.987698e+01	-3.711713e+02
8.000000e-07	-5.497265e-06	-1.403389e-09	-2.966874e+01	-3.701006e+02
8.100000e-07	-5.458203e-06	-1.401195e-09	-2.945792e+01	-3.689996e+02
8.200000e-07	-5.418832e-06	-1.397538e-09	-2.924544e+01	-3.678671e+02
8.300000e-07	-5.379279e-06	-1.390532e-09	-2.903197e+01	-3.667019e+02
8.400000e-07	-5.339450e-06	-1.382638e-09	-2.881701e+01	-3.655029e+02
8.500000e-07	-5.299362e-06	-1.377149e-09	-2.860066e+01	-3.642691e+02
8.600000e-07	-5.258915e-06	-1.372791e-09	-2.838236e+01	-3.629996e+02
8.700000e-07	-5.218101e-06	-1.367161e-09	-2.816209e+01	-3.616940e+02
8.800000e-07	-5.176913e-06	-1.361108e-09	-2.793980e+01	-3.603517e+02
8.900000e-07	-5.135050e-06	-1.356550e-09	-2.771387e+01	-3.589725e+02
9.000000e-07	-5.092464e-06	-1.352244e-09	-2.748403e+01	-3.575562e+02
9.100000e-07	-5.049346e-06	-1.345241e-09	-2.725132e+01	-3.561029e+02
9.200000e-07	-5.005846e-06	-1.336436e-09	-2.701655e+01	-3.546130e+02
9.300000e-07	-4.962101e-06	-1.328173e-09	-2.678046e+01	-3.530870e+02
9.400000e-07	-4.918156e-06	-1.321481e-09	-2.654329e+01	-3.515253e+02
9.500000e-07	-4.873860e-06	-1.315604e-09	-2.630422e+01	-3.499290e+02
9.600000e-07	-4.829223e-06	-1.308390e-09	-2.606332e+01	-3.482988e+02
9.700000e-07	-4.784354e-06	-1.299686e-09	-2.582116e+01	-3.466359e+02
9.800000e-07	-4.739179e-06	-1.291493e-09	-2.557735e+01	-3.449416e+02
9.900000e-07	-4.693542e-06	-1.284184e-09	-2.533105e+01	-3.432170e+02
1.000000e-06	-4.647524e-06	-1.277207e-09	-2.508269e+01	-3.414635e+02
1.010000e-06	-4.601294e-06	-1.271211e-09	-2.483318e+01	-3.396826e+02
1.020000e-06	-4.554747e-06	-1.265855e-09	-2.458197e+01	-3.378757e+02
1.030000e-06	-4.507876e-06	-1.259652e-09	-2.432901e+01	-3.360442e+02
1.040000e-06	-4.460748e-06	-1.252651e-09	-2.407466e+01	-3.341896e+02
1.050000e-06	-4.413330e-06	-1.244441e-09	-2.381874e+01	-3.323131e+02
1.060000e-06	-4.365657e-06	-1.235306e-09	-2.356145e+01	-3.304162e+02
1.070000e-06	-4.317753e-06	-1.226403e-09	-2.330292e+01	-3.284999e+02
1.080000e-06	-4.269612e-06	-1.218810e-09	-2.304310e+01	-3.265654e+02
1.090000e-06	-4.221075e-06	-1.212645e-09	-2.278114e+01	-3.246137e+02
1.100000e-06	-4.172131e-06	-1.206862e-09	-2.251699e+01	-3.226455e+02
1.110000e-06	-4.122812e-06	-1.200180e-09	-2.225082e+01	-3.206615e+02
1.120000e-06	-4.073013e-06	-1.191341e-09	-2.198205e+01	-3.186623e+02
1.130000e-06	-4.022671e-06	-1.181033e-09	-2.171036e+01	-3.166480e+02
1.140000e-06	-3.971936e-06	-1.170878e-09	-2.143654e+01	-3.146188e+02
1.150000e-06	-3.920869e-06	-1.161686e-09	-2.116093e+01	-3.125748e+02
1.160000e-06	-3.869454e-06	-1.153292e-09	-2.088344e+01	-3.105156e+02
1.170000e-06	-3.817762e-06	-1.145722e-09	-2.060446e+01	-3.084409e+02
1.180000e-06	-3.765750e-06	-1.139146e-09	-2.032375e+01	-3.063502e+02
1.190000e-06	-3.713342e-06	-1.131945e-09	-2.004091e+01	-3.042426e+02
1.200000e-06	-3.660569e-06	-1.123990e-09	-1.975609e+01	-3.021173e+02
1.210000e-06	-3.607569e-06	-1.115816e-09	-1.947005e+01	-2.999735e+02
1.220000e-06	-3.554283e-06	-1.107821e-09	-1.918247e+01	-2.978099e+02
1.230000e-06	-3.500771e-06	-1.099154e-09	-1.889366e+01	-2.956255e+02
1.240000e-06	-3.447095e-06	-1.089443e-09	-1.860397e+01	-2.934190e+02
1.250000e-06	-3.393153e-06	-1.079919e-09	-1.831285e+01	-2.911890e+02
1.260000e-06	-3.338971e-06	-1.070212e-09	-1.802043e+01	-2.889342e+02
1.270000e-06	-3.284546e-06	-1.060800e-09	-1.772669e+01	-2.866534e+02
1.280000e-06	-3.229951e-06	-1.052772e-09	-1.743204e+01	-2.843452e+02
1.290000e-06	-3.175139e-06	-1.044327e-09	-1.713622e+01	-2.820082e+02
1.300000e-06	-3.120039e-06	-1.033912e-09	-1.683885e+01	-2.796413e+02
1.310000e-06	-3.064774e-06	-1.022906e-09	-1.654059e+01	-2.772431e+02
1.320000e-06	-3.009341e-06	-1.011946e-09	-1.624141e+01	-2.748126e+02
1.330000e-06	-2.953751e-06	-1.000564e-09	-1.594139e+01	-2.723486e+02
1.340000e-06	-2.898074e-06	-9.883393e-10	-1.564091e+01	-2.698503e+02
1.350000e-06	-2.842261e-06	-9.774799e-10	-1.533968e+01	-2.673166e+02
1.360000e-06	-2.786338e-06	-9.689201e-10	-1.503787e+01	-2.647468e+02
1.370000e-06	-2.730267e-06	-9.608318e-10	-1.473525e+01	-2.621401e+02
1.380000e-06	-2.673966e-06	-9.526084e-10	-1.443139e+01	-2.594960e+02
1.390000e-06	-2.617578e-06	-9.431191e-10	-1.412707e+01	-2.568138e+02
1.400000e-06	-2.561078e-06	-9.317857e-10	-1.382214e+01	-2.540931e+02
1.410000e-06	-2.504214e-06	-9.206907e-10	-1.351525e+01	-2.513334e+02
1.420000e-06	-2.446930e-06	-9.101866e-10	-1.320608e+01	-2.485343e+02
1.430000e-06	-2.389355e-06	-8.991845e-10	-1.289535e+01	-2.456955e+02
1.440000e-06	-2.331571e-06	-8.884509e-10	-1.258349e+01	-2.428165e+02
1.450000e-06	-2.273516e-06	-8.784953e-10	-1.227017e+01	-2.398971e+02
1.460000e-06	-2.215175e-06	-8.683454e-10	-1.195530e+01	-2.369369e+02
1.470000e-06	-2.156597e-06	-8.577701e-10	-1.163915e+01	-2.339354e+02
1.480000e-06	-2.097743e-06	-8.470448e-10	-1.132152e+01	-2.308921e+02
1.490000e-06	-2.038602e-06	-8.355607e-10	-1.100233e+01	-2.278065e+02
1.500000e-06	-1.979248e-06	-8.232500e-10	-1.068200e+01	-2.246779e+02
1.510000e-06	-1.919868e-06	-8.109864e-10	-1.036153e+01	-2.215055e+02
1.520000e-06	-1.860478e-06	-7.991322e-10	-1.004100e+01	-2.182885e+02
1.530000e-06	-1.800928e-06	-7.868331e-10	-9.719611e+00	-2.150259e+02
1.540000e-06	-1.741355e-06	-7.742950e-10	-9.398093e+00	-2.117164e+02
1.550000e-06	-1.681713e-06	-7.622711e-10	-9.076204e+00	-2.083588e+02
1.560000e-06	-1.621975e-06	-7.504754e-10	-8.753801e+00	-2.049518e+02
1.570000e-06	-1.562233e-06	-7.387410e-10	-8.431370e+00	-2.014936e+02
1.580000e-06	-1.502416e-06	-7.269908e-10	-8.108539e+00	-1.979826e+02
1.590000e-06	-1.442461e-06	-7.149339e-10	-7.784962e+00	-1.944170e+02
1.600000e-06	-1.382349e-06	-7.022594e-10	-7.460537e+00	-1.907948e+02
1.610000e-06	-1.322196e-06	-6.883931e-10	-7.135892e+00	-1.871141e+02
1.620000e-06	-1.261968e-06	-6.742156e-10	-6.810844e+00	-1.833726e+02
1.630000e-06	-1.201711e-06	-6.605244e-10	-6.485632e+00	-1.795682e+02
1.640000e-06	-1.141475e-06	-6.464152e-10	-6.160540e+00	-1.756987e+02
1.650000e-06	-1.081187e-06	-6.321294e-10	-5.835165e+00	-1.717620e+02
1.660000e-06	-1.020864e-06	-6.175009e-10	-5.509605e+00	-1.677558e+02
1.670000e-06	-9.604203e-07	-6.020734e-10	-5.183389e+00	-1.636781e+02
1.680000e-06	-8.998842e-07	-5.867475e-10	-4.856675e+00	-1.595267e+02
1.690000e-06	-8.393343e-07	-5.722045e-10	-4.529887e+00	-1.552999e+02
1.700000e-06	-7.787212e-07	-5.575680e-10	-4.202758e+00	-1.509958e+02
1.710000e-06	-7.180104e-07	-5.420874e-10	-3.875102e+00	-1.466130e+02
1.720000e-06	-6.571516e-07	-5.263950e-10	-3.546647e+00	-1.421500e+02
1.730000e-06	-5.962400e-07	-5.109358e-10	-3.217908e+00	-1.376058e+02
1.740000e-06	-5.353373e-07	-4.947245e-10	-2.889216e+00	-1.329796e+02
1.750000e-06	-4.743618e-07	-4.771348e-10	-2.560131e+00	-1.282708e+02
1.760000e-06	-4.132966e-07	-4.590109e-10	-2.230562e+00	-1.234793e+02
1.770000e-06	-3.522238e-07	-4.401682e-10	-1.900952e+00	-1.186053e+02
1.780000e-06	-2.911604e-07	-4.209169e-10	-1.571393e+00	-1.136494e+02
1.790000e-06	-2.300781e-07	-4.026530e-10	-1.241731e+00	-1.086123e+02
1.800000e-06	-1.690067e-07	-3.842198e-10	-9.121290e-01	-1.034955e+02
1.810000e-06	-1.080397e-07	-3.645927e-10	-5.830905e-01	-9.830067e+01
1.820000e-06	-4.709034e-08	-3.444135e-10	-2.541466e-01	-9.302986e+01
1.830000e-06	1.394927e-08	-3.240112e-10	7.528424e-02	-8.768558e+01
1.840000e-06	7.496326e-08	-3.036816e-10	4.045767e-01	-8.227069e+01
1.850000e-06	1.359186e-07	-2.837227e-10	7.335527e-01	-7.678844e+01
1.860000e-06	1.968942e-07	-2.638008e-10	1.062638e+00	-7.124241e+01
1.870000e-06	2.579329e-07	-2.417258e-10	1.392064e+00	-6.563652e+01
1.880000e-06	3.189561e-07	-2.180616e-10	1.721406e+00	-5.997500e+01
1.890000e-06	3.799312e-07	-1.960820e-10	2.050488e+00	-5.426235e+01
1.900000e-06	4.408650e-07	-1.756973e-10	2.379348e+00	-4.850332e+01
1.910000e-06	5.017894e-07	-1.547683e-10	2.708157e+00	-4.270287e+01
1.920000e-06	5.627323e-07	-1.333839e-10	3.037067e+00	-3.686614e+01
1.930000e-06	6.236249e-07	-1.112998e-10	3.365704e+00	-3.099840e+01
1.940000e-06	6.844384e-07	-8.749332e-11	3.693914e+00	-2.510504e+01
1.950000e-06	7.452290e-07	-6.281648e-11	4.022001e+00	-1.919147e+01
1.960000e-06	8.059200e-07	-3.890040e-11	4.349550e+00	-1.326316e+01
1.970000e-06	8.665121e-07	-1.579408e-11	4.676566e+00	-7.325523e+00
1.980000e-06	9.270228e-07	7.513299e-12	5.003142e+00	-1.383929e+00
1.990000e-06	9.874390e-07	3.046487e-11	5.329209e+00	4.556354e+00
2.000000e-06	1.047907e-06	5.336628e-11	5.655554e+00	1.049020e+01
2.010000e-06	1.108461e-06	7.631819e-11	5.982364e+00	1.641263e+01
2.020000e-06	1.168928e-06	9.886484e-11	6.308704e+00	2.231891e+01
2.030000e-06	1.229255e-06	1.213114e-10	6.634287e+00	2.820448e+01
2.040000e-06	1.289508e-06	1.430393e-10	6.959474e+00	3.406507e+01
2.050000e-06	1.349644e-06	1.638775e-10	7.284029e+00	3.989667e+01
2.060000e-06	1.409659e-06	1.842599e-10	7.607928e+00	4.569556e+01
2.070000e-06	1.469626e-06	2.051037e-10	7.931572e+00	5.145832e+01
2.080000e-06	1.529559e-06	2.271747e-10	8.255030e+00	5.718185e+01
2.090000e-06	1.589463e-06	2.491382e-10	8.578333e+00	6.286337e+01
2.100000e-06	1.649347e-06	2.699967e-10	8.901525e+00	6.850039e+01
2.110000e-06	1.709151e-06	2.900968e-10	9.224288e+00	7.409076e+01
2.120000e-06	1.768826e-06	3.099682e-10	9.546354e+00	7.963264e+01
2.130000e-06	1.828360e-06	3.303320e-10	9.867657e+00	8.512444e+01
2.140000e-06	1.887867e-06	3.505287e-10	1.018882e+01	9.056490e+01
2.150000e-06	1.947291e-06	3.697515e-10	1.050953e+01	9.595300e+01
2.160000e-06	2.006532e-06	3.884638e-10	1.082925e+01	1.012880e+02
2.170000e-06	2.065615e-06	4.063875e-10	1.114812e+01	1.065692e+02
2.180000e-06	2.124603e-06	4.237706e-10	1.146648e+01	1.117964e+02
2.190000e-06	2.183350e-06	4.428694e-10	1.178354e+01	1.169693e+02
2.200000e-06	2.241691e-06	4.627927e-10	1.209841e+01	1.220878e+02
2.210000e-06	2.299772e-06	4.812432e-10	1.241187e+01	1.271521e+02
2.220000e-06	2.357533e-06	4.987664e-10	1.272361e+01	1.321623e+02
2.230000e-06	2.414982e-06	5.158469e-10	1.303366e+01	1.371185e+02
2.240000e-06	2.472168e-06	5.328442e-10	1.334229e+01	1.420209e+02
2.250000e-06	2.528973e-06	5.502716e-10	1.364887e+01	1.468699e+02
2.260000e-06	2.585549e-06	5.668827e-10	1.395421e+01	1.516656e+02
2.270000e-06	2.641901e-06	5.822835e-10	1.425834e+01	1.564082e+02
2.280000e-06	2.698088e-06	5.976735e-10	1.456158e+01	1.610979e+02
2.290000e-06	2.754162e-06	6.137757e-10	1.486421e+01	1.657347e+02
2.300000e-06	2.810004e-06	6.306833e-10	1.516559e+01	1.703185e+02
2.310000e-06	2.865779e-06	6.469983e-10	1.546661e+01	1.748492e+02
2.320000e-06	2.921501e-06	6.621769e-10	1.576734e+01	1.793266e+02
2.330000e-06	2.977056e-06	6.785253e-10	1.606717e+01	1.837504e+02
2.340000e-06	3.032475e-06	6.960779e-10	1.636627e+01	1.881202e+02
2.350000e-06	3.087678e-06	7.129492e-10	1.666420e+01	1.924353e+02
2.360000e-06	3.142672e-06	7.287721e-10	1.696100e+01	1.966952e+02
2.370000e-06	3.197400e-06	7.433428e-10	1.725637e+01	2.008991e+02
2.380000e-06	3.251773e-06	7.580602e-10	1.754982e+01	2.050462e+02
2.390000e-06	3.305933e-06	7.740197e-10	1.784212e+01	2.091358e+02
2.400000e-06	3.359869e-06	7.893701e-10	1.813321e+01	2.131667e+02
2.410000e-06	3.413644e-06	8.039872e-10	1.842344e+01	2.171383e+02
2.420000e-06	3.467258e-06	8.188277e-10	1.871279e+01	2.210494e+02
2.430000e-06	3.520568e-06	8.340270e-10	1.900051e+01	2.248992e+02
2.440000e-06	3.573708e-06	8.495855e-10	1.928730e+01	2.286868e+02
2.450000e-06	3.626614e-06	8.644658e-10	1.957283e+01	2.324113e+02
2.460000e-06	3.679140e-06	8.781922e-10	1.985632e+01	2.360720e+02
2.470000e-06	3.731442e-06	8.918141e-10	2.013859e+01	2.396682e+02
2.480000e-06	3.783544e-06	9.062512e-10	2.041979e+01	2.431992e+02
2.490000e-06	3.835285e-06	9.208467e-10	2.069904e+01	2.466648e+02
2.500000e-06	3.886706e-06	9.343195e-10	2.097655e+01	2.500645e+02
2.510000e-06	3.937823e-06	9.455529e-10	2.125243e+01	2.533983e+02
2.520000e-06	3.988542e-06	9.561791e-10	2.152616e+01	2.566662e+02
2.530000e-06	4.038694e-06	9.677013e-10	2.179683e+01	2.598683e+02
2.540000e-06	4.088080e-06	9.802532e-10	2.206337e+01	2.630051e+02
2.550000e-06	4.137040e-06	9.941417e-10	2.232761e+01	2.660771e+02
2.560000e-06	4.185836e-06	1.007631e-09	2.259096e+01	2.690851e+02
2.570000e-06	4.234298e-06	1.019245e-09	2.285251e+01	2.720300e+02
2.580000e-06	4.282406e-06	1.029789e-09	2.311215e+01	2.749130e+02
2.590000e-06	4.330298e-06	1.040179e-09	2.337062e+01	2.777352e+02
2.600000e-06	4.378008e-06	1.050161e-09	2.362811e+01	2.804982e+02
2.610000e-06	4.425518e-06	1.059246e-09	2.388452e+01	2.832034e+02
2.620000e-06	4.472729e-06	1.068824e-09	2.413932e+01	2.858526e+02
2.630000e-06	4.519447e-06	1.080293e-09	2.439146e+01	2.884476e+02
2.640000e-06	4.565799e-06	1.091825e-09	2.464162e+01	2.909902e+02
2.650000e-06	4.611902e-06	1.101728e-09	2.489044e+01	2.934825e+02
2.660000e-06	4.657623e-06	1.111074e-09	2.513719e+01	2.959263e+02
2.670000e-06	4.703084e-06	1.119997e-09	2.538255e+01	2.983238e+02
2.680000e-06	4.748284e-06	1.128029e-09	2.562649e+01	3.006770e+02
2.690000e-06	4.793165e-06	1.136972e-09	2.586871e+01	3.029878e+02
2.700000e-06	4.837788e-06	1.146237e-09	2.610954e+01	3.052583e+02
2.710000e-06	4.882078e-06	1.154419e-09	2.634858e+01	3.074903e+02
2.720000e-06	4.926078e-06	1.162252e-09	2.658604e+01	3.096858e+02
2.730000e-06	4.969905e-06	1.170398e-09	2.682258e+01	3.118464e+02
2.740000e-06	5.013548e-06	1.178601e-09	2.705812e+01	3.139738e+02
2.750000e-06	5.056818e-06	1.186271e-09	2.729165e+01	3.160696e+02
2.760000e-06	5.099604e-06	1.193622e-09	2.752257e+01	3.181351e+02
2.770000e-06	5.141930e-06	1.200519e-09	2.775100e+01	3.201716e+02
2.780000e-06	5.183558e-06	1.207474e-09	2.797566e+01	3.221803e+02
2.790000e-06	5.224392e-06	1.214603e-09	2.819605e+01	3.241620e+02
2.800000e-06	5.264820e-06	1.220660e-09	2.841423e+01	3.261177e+02
2.810000e-06	5.305069e-06	1.226672e-09	2.863146e+01	3.280480e+02
2.820000e-06	5.344968e-06	1.233959e-09	2.884680e+01	3.299535e+02
2.830000e-06	5.384561e-06	1.241671e-09	2.906048e+01	3.318346e+02
2.840000e-06	5.423981e-06	1.249065e-09	2.927323e+01	3.336916e+02
2.850000e-06	5.462946e-06	1.255149e-09	2.948352e+01	3.355247e+02
2.860000e-06	5.501501e-06	1.260631e-09	2.969160e+01	3.373340e+02
2.870000e-06	5.539713e-06	1.266721e-09	2.989783e+01	3.391196e+02
2.880000e-06	5.577517e-06	1.273731e-09	3.010186e+01	3.408813e+02
2.890000e-06	5.614964e-06	1.281209e-09	3.030396e+01	3.426190e+02
2.900000e-06	5.651977e-06	1.287894e-09	3.050372e+01	3.443326e+02
