# Temperatura_=_19.4
# Concentracion g/m^3_=_7400.0
# C_Vs_to_Am_M_A/Vsm_=_254322799225.57578
# pendiente_HvsI_1/m_=_3716.3
# ordenada_HvsI_A/m_=_1297.0
# frecuencia_Hz_=_136126.45991832955

Tiempo_(s)	Campo_(V.s)	Magnetizacion_(V.s)	Campo_(kA/m)	Magnetizacion_(A/m)
0.000000e+00	-7.127222e-06	-1.753651e-09	-3.841815e+01	-4.403581e+02
1.000000e-08	-7.127292e-06	-1.752242e-09	-3.841853e+01	-4.404162e+02
2.000000e-08	-7.127136e-06	-1.751910e-09	-3.841769e+01	-4.404605e+02
3.000000e-08	-7.126543e-06	-1.750553e-09	-3.841449e+01	-4.404916e+02
4.000000e-08	-7.125273e-06	-1.748376e-09	-3.840765e+01	-4.405098e+02
5.000000e-08	-7.123290e-06	-1.747588e-09	-3.839696e+01	-4.405153e+02
6.000000e-08	-7.120468e-06	-1.748915e-09	-3.838175e+01	-4.405084e+02
7.000000e-08	-7.117022e-06	-1.752408e-09	-3.836317e+01	-4.404893e+02
8.000000e-08	-7.113257e-06	-1.754404e-09	-3.834287e+01	-4.404581e+02
9.000000e-08	-7.109040e-06	-1.739325e-09	-3.832015e+01	-4.404149e+02
1.000000e-07	-7.104151e-06	-1.706055e-09	-3.829379e+01	-4.403597e+02
1.100000e-07	-7.098492e-06	-1.707022e-09	-3.826329e+01	-4.402924e+02
1.200000e-07	-7.092503e-06	-1.766617e-09	-3.823100e+01	-4.402130e+02
1.300000e-07	-7.086434e-06	-1.795168e-09	-3.819829e+01	-4.401214e+02
1.400000e-07	-7.079887e-06	-1.722155e-09	-3.816300e+01	-4.400172e+02
1.500000e-07	-7.072645e-06	-1.677546e-09	-3.812397e+01	-4.399003e+02
1.600000e-07	-7.064948e-06	-1.757766e-09	-3.808248e+01	-4.397705e+02
1.700000e-07	-7.056935e-06	-1.794949e-09	-3.803928e+01	-4.396274e+02
1.800000e-07	-7.048484e-06	-1.685228e-09	-3.799373e+01	-4.394707e+02
1.900000e-07	-7.039317e-06	-1.634131e-09	-3.794431e+01	-4.393001e+02
2.000000e-07	-7.029393e-06	-1.762559e-09	-3.789082e+01	-4.391151e+02
2.100000e-07	-7.019000e-06	-1.819775e-09	-3.783480e+01	-4.389156e+02
2.200000e-07	-7.008157e-06	-1.686670e-09	-3.777635e+01	-4.387011e+02
2.300000e-07	-6.996677e-06	-1.627634e-09	-3.771447e+01	-4.384712e+02
2.400000e-07	-6.984633e-06	-1.740778e-09	-3.764955e+01	-4.382257e+02
2.500000e-07	-6.972072e-06	-1.769875e-09	-3.758184e+01	-4.379642e+02
2.600000e-07	-6.958862e-06	-1.670814e-09	-3.751063e+01	-4.376864e+02
2.700000e-07	-6.944890e-06	-1.674632e-09	-3.743532e+01	-4.373922e+02
2.800000e-07	-6.930267e-06	-1.757336e-09	-3.735650e+01	-4.370812e+02
2.900000e-07	-6.915010e-06	-1.726292e-09	-3.727426e+01	-4.367532e+02
3.000000e-07	-6.898997e-06	-1.664711e-09	-3.718795e+01	-4.364082e+02
3.100000e-07	-6.882502e-06	-1.703051e-09	-3.709903e+01	-4.360460e+02
3.200000e-07	-6.865725e-06	-1.712592e-09	-3.700860e+01	-4.356664e+02
3.300000e-07	-6.848480e-06	-1.659159e-09	-3.691564e+01	-4.352695e+02
3.400000e-07	-6.830831e-06	-1.696973e-09	-3.682051e+01	-4.348552e+02
3.500000e-07	-6.812849e-06	-1.757913e-09	-3.672358e+01	-4.344236e+02
3.600000e-07	-6.794255e-06	-1.684766e-09	-3.662335e+01	-4.339747e+02
3.700000e-07	-6.775066e-06	-1.628392e-09	-3.651991e+01	-4.335085e+02
3.800000e-07	-6.755421e-06	-1.706668e-09	-3.641402e+01	-4.330252e+02
3.900000e-07	-6.735321e-06	-1.725875e-09	-3.630568e+01	-4.325248e+02
4.000000e-07	-6.714804e-06	-1.643080e-09	-3.619508e+01	-4.320076e+02
4.100000e-07	-6.693859e-06	-1.655068e-09	-3.608218e+01	-4.314735e+02
4.200000e-07	-6.672429e-06	-1.719586e-09	-3.596666e+01	-4.309229e+02
4.300000e-07	-6.650621e-06	-1.681575e-09	-3.584911e+01	-4.303557e+02
4.400000e-07	-6.628337e-06	-1.641539e-09	-3.572899e+01	-4.297723e+02
4.500000e-07	-6.605619e-06	-1.674332e-09	-3.560654e+01	-4.291726e+02
4.600000e-07	-6.582398e-06	-1.665785e-09	-3.548136e+01	-4.285570e+02
4.700000e-07	-6.558735e-06	-1.635508e-09	-3.535381e+01	-4.279254e+02
4.800000e-07	-6.534875e-06	-1.670054e-09	-3.522520e+01	-4.272781e+02
4.900000e-07	-6.510692e-06	-1.678922e-09	-3.509485e+01	-4.266151e+02
5.000000e-07	-6.485771e-06	-1.629341e-09	-3.496051e+01	-4.259366e+02
5.100000e-07	-6.459994e-06	-1.632794e-09	-3.482157e+01	-4.252426e+02
5.200000e-07	-6.433602e-06	-1.662556e-09	-3.467931e+01	-4.245333e+02
5.300000e-07	-6.406554e-06	-1.636894e-09	-3.453351e+01	-4.238086e+02
5.400000e-07	-6.379028e-06	-1.621547e-09	-3.438513e+01	-4.230687e+02
5.500000e-07	-6.351245e-06	-1.642770e-09	-3.423537e+01	-4.223136e+02
5.600000e-07	-6.323162e-06	-1.633772e-09	-3.408400e+01	-4.215433e+02
5.700000e-07	-6.294593e-06	-1.616516e-09	-3.393000e+01	-4.207579e+02
5.800000e-07	-6.265560e-06	-1.625125e-09	-3.377350e+01	-4.199574e+02
5.900000e-07	-6.236150e-06	-1.616261e-09	-3.361497e+01	-4.191417e+02
6.000000e-07	-6.206381e-06	-1.599343e-09	-3.345451e+01	-4.183109e+02
6.100000e-07	-6.176206e-06	-1.609675e-09	-3.329186e+01	-4.174650e+02
6.200000e-07	-6.145388e-06	-1.611781e-09	-3.312573e+01	-4.166039e+02
6.300000e-07	-6.114047e-06	-1.595098e-09	-3.295679e+01	-4.157276e+02
6.400000e-07	-6.082455e-06	-1.591673e-09	-3.278650e+01	-4.148360e+02
6.500000e-07	-6.050665e-06	-1.586938e-09	-3.261514e+01	-4.139290e+02
6.600000e-07	-6.018583e-06	-1.573942e-09	-3.244221e+01	-4.130066e+02
6.700000e-07	-5.986137e-06	-1.574301e-09	-3.226732e+01	-4.120686e+02
6.800000e-07	-5.953141e-06	-1.575356e-09	-3.208945e+01	-4.111149e+02
6.900000e-07	-5.919268e-06	-1.564995e-09	-3.190687e+01	-4.101453e+02
7.000000e-07	-5.884578e-06	-1.558260e-09	-3.171988e+01	-4.091596e+02
7.100000e-07	-5.849422e-06	-1.554043e-09	-3.153038e+01	-4.081575e+02
7.200000e-07	-5.814003e-06	-1.545335e-09	-3.133945e+01	-4.071388e+02
7.300000e-07	-5.778308e-06	-1.541054e-09	-3.114704e+01	-4.061030e+02
7.400000e-07	-5.742366e-06	-1.539217e-09	-3.095331e+01	-4.050499e+02
7.500000e-07	-5.706046e-06	-1.532952e-09	-3.075753e+01	-4.039790e+02
7.600000e-07	-5.669262e-06	-1.530268e-09	-3.055925e+01	-4.028898e+02
7.700000e-07	-5.632089e-06	-1.528737e-09	-3.035888e+01	-4.017817e+02
7.800000e-07	-5.594509e-06	-1.518192e-09	-3.015631e+01	-4.006543e+02
7.900000e-07	-5.556501e-06	-1.507702e-09	-2.995143e+01	-3.995068e+02
8.000000e-07	-5.518071e-06	-1.503555e-09	-2.974428e+01	-3.983386e+02
8.100000e-07	-5.479212e-06	-1.499312e-09	-2.953482e+01	-3.971489e+02
8.200000e-07	-5.439966e-06	-1.495243e-09	-2.932327e+01	-3.959371e+02
8.300000e-07	-5.400465e-06	-1.491369e-09	-2.911035e+01	-3.947022e+02
8.400000e-07	-5.360768e-06	-1.484333e-09	-2.889637e+01	-3.934436e+02
8.500000e-07	-5.320801e-06	-1.476925e-09	-2.868093e+01	-3.921605e+02
8.600000e-07	-5.280464e-06	-1.471732e-09	-2.846350e+01	-3.908519e+02
8.700000e-07	-5.239693e-06	-1.466495e-09	-2.824373e+01	-3.895170e+02
8.800000e-07	-5.198486e-06	-1.459657e-09	-2.802161e+01	-3.881552e+02
8.900000e-07	-5.156678e-06	-1.453113e-09	-2.779625e+01	-3.867655e+02
9.000000e-07	-5.114252e-06	-1.448100e-09	-2.756756e+01	-3.853474e+02
9.100000e-07	-5.071306e-06	-1.442880e-09	-2.733607e+01	-3.839000e+02
9.200000e-07	-5.027934e-06	-1.435765e-09	-2.710228e+01	-3.824227e+02
9.300000e-07	-4.984311e-06	-1.427685e-09	-2.686713e+01	-3.809151e+02
9.400000e-07	-4.940454e-06	-1.420617e-09	-2.663073e+01	-3.793766e+02
9.500000e-07	-4.896268e-06	-1.414840e-09	-2.639255e+01	-3.778068e+02
9.600000e-07	-4.851715e-06	-1.409340e-09	-2.615240e+01	-3.762055e+02
9.700000e-07	-4.806846e-06	-1.402604e-09	-2.591054e+01	-3.745724e+02
9.800000e-07	-4.761678e-06	-1.395039e-09	-2.566707e+01	-3.729075e+02
9.900000e-07	-4.716161e-06	-1.387848e-09	-2.542172e+01	-3.712106e+02
1.000000e-06	-4.670277e-06	-1.380422e-09	-2.517438e+01	-3.694821e+02
1.010000e-06	-4.624075e-06	-1.373644e-09	-2.492534e+01	-3.677219e+02
1.020000e-06	-4.577671e-06	-1.368130e-09	-2.467521e+01	-3.659304e+02
1.030000e-06	-4.530938e-06	-1.362488e-09	-2.442330e+01	-3.641081e+02
1.040000e-06	-4.483792e-06	-1.355884e-09	-2.416917e+01	-3.622553e+02
1.050000e-06	-4.436423e-06	-1.349451e-09	-2.391383e+01	-3.603725e+02
1.060000e-06	-4.388847e-06	-1.342874e-09	-2.365738e+01	-3.584603e+02
1.070000e-06	-4.340913e-06	-1.335095e-09	-2.339900e+01	-3.565194e+02
1.080000e-06	-4.292650e-06	-1.326359e-09	-2.313884e+01	-3.545503e+02
1.090000e-06	-4.244074e-06	-1.317945e-09	-2.287700e+01	-3.525538e+02
1.100000e-06	-4.195034e-06	-1.310638e-09	-2.261266e+01	-3.505304e+02
1.110000e-06	-4.145487e-06	-1.303730e-09	-2.234558e+01	-3.484809e+02
1.120000e-06	-4.095519e-06	-1.295400e-09	-2.207624e+01	-3.464057e+02
1.130000e-06	-4.045149e-06	-1.285474e-09	-2.180473e+01	-3.443054e+02
1.140000e-06	-3.994317e-06	-1.276069e-09	-2.153073e+01	-3.421806e+02
1.150000e-06	-3.943116e-06	-1.268264e-09	-2.125474e+01	-3.400316e+02
1.160000e-06	-3.891689e-06	-1.260841e-09	-2.097753e+01	-3.378588e+02
1.170000e-06	-3.840049e-06	-1.252732e-09	-2.069917e+01	-3.356624e+02
1.180000e-06	-3.788133e-06	-1.244705e-09	-2.041933e+01	-3.334425e+02
1.190000e-06	-3.735876e-06	-1.236060e-09	-2.013764e+01	-3.311992e+02
1.200000e-06	-3.683218e-06	-1.226716e-09	-1.985380e+01	-3.289325e+02
1.210000e-06	-3.630281e-06	-1.218031e-09	-1.956845e+01	-3.266420e+02
1.220000e-06	-3.577122e-06	-1.210199e-09	-1.928190e+01	-3.243277e+02
1.230000e-06	-3.523778e-06	-1.202142e-09	-1.899436e+01	-3.219890e+02
1.240000e-06	-3.470283e-06	-1.193527e-09	-1.870601e+01	-3.196256e+02
1.250000e-06	-3.416558e-06	-1.184782e-09	-1.841641e+01	-3.172370e+02
1.260000e-06	-3.362521e-06	-1.175536e-09	-1.812513e+01	-3.148225e+02
1.270000e-06	-3.308255e-06	-1.165017e-09	-1.783262e+01	-3.123814e+02
1.280000e-06	-3.253689e-06	-1.153989e-09	-1.753849e+01	-3.099132e+02
1.290000e-06	-3.198763e-06	-1.143992e-09	-1.724242e+01	-3.074170e+02
1.300000e-06	-3.143711e-06	-1.134955e-09	-1.694568e+01	-3.048921e+02
1.310000e-06	-3.088592e-06	-1.125384e-09	-1.664856e+01	-3.023378e+02
1.320000e-06	-3.033328e-06	-1.114759e-09	-1.635067e+01	-2.997535e+02
1.330000e-06	-2.977883e-06	-1.103430e-09	-1.605181e+01	-2.971383e+02
1.340000e-06	-2.922234e-06	-1.091546e-09	-1.575184e+01	-2.944916e+02
1.350000e-06	-2.866399e-06	-1.079716e-09	-1.545087e+01	-2.918129e+02
1.360000e-06	-2.810495e-06	-1.069140e-09	-1.514952e+01	-2.891015e+02
1.370000e-06	-2.754497e-06	-1.060050e-09	-1.484767e+01	-2.863569e+02
1.380000e-06	-2.698316e-06	-1.051396e-09	-1.454484e+01	-2.835786e+02
1.390000e-06	-2.641859e-06	-1.042235e-09	-1.424052e+01	-2.807663e+02
1.400000e-06	-2.585012e-06	-1.031386e-09	-1.393410e+01	-2.779194e+02
1.410000e-06	-2.527985e-06	-1.019252e-09	-1.362670e+01	-2.750377e+02
1.420000e-06	-2.470942e-06	-1.007161e-09	-1.331922e+01	-2.721208e+02
1.430000e-06	-2.413625e-06	-9.956096e-10	-1.301026e+01	-2.691683e+02
1.440000e-06	-2.355893e-06	-9.851853e-10	-1.269907e+01	-2.661798e+02
1.450000e-06	-2.297860e-06	-9.755776e-10	-1.238625e+01	-2.631549e+02
1.460000e-06	-2.239507e-06	-9.656334e-10	-1.207170e+01	-2.600931e+02
1.470000e-06	-2.180857e-06	-9.544055e-10	-1.175556e+01	-2.569937e+02
1.480000e-06	-2.121903e-06	-9.426922e-10	-1.143778e+01	-2.538560e+02
1.490000e-06	-2.062763e-06	-9.314244e-10	-1.111900e+01	-2.506791e+02
1.500000e-06	-2.003548e-06	-9.196164e-10	-1.079981e+01	-2.474620e+02
1.510000e-06	-1.944225e-06	-9.072188e-10	-1.048003e+01	-2.442034e+02
1.520000e-06	-1.884847e-06	-8.949331e-10	-1.015997e+01	-2.409017e+02
1.530000e-06	-1.825344e-06	-8.827371e-10	-9.839225e+00	-2.375552e+02
1.540000e-06	-1.765769e-06	-8.699056e-10	-9.518095e+00	-2.341619e+02
1.550000e-06	-1.706188e-06	-8.570151e-10	-9.196933e+00	-2.307196e+02
1.560000e-06	-1.646553e-06	-8.445344e-10	-8.875480e+00	-2.272255e+02
1.570000e-06	-1.586861e-06	-8.317106e-10	-8.553721e+00	-2.236770e+02
1.580000e-06	-1.527073e-06	-8.194577e-10	-8.231441e+00	-2.200708e+02
1.590000e-06	-1.467157e-06	-8.077248e-10	-7.908476e+00	-2.164035e+02
1.600000e-06	-1.407128e-06	-7.952970e-10	-7.584897e+00	-2.126715e+02
1.610000e-06	-1.346978e-06	-7.820662e-10	-7.260671e+00	-2.088709e+02
1.620000e-06	-1.286755e-06	-7.682677e-10	-6.936049e+00	-2.049975e+02
1.630000e-06	-1.226498e-06	-7.540209e-10	-6.611240e+00	-2.010471e+02
1.640000e-06	-1.166149e-06	-7.391844e-10	-6.285942e+00	-1.970154e+02
1.650000e-06	-1.105751e-06	-7.237967e-10	-5.960373e+00	-1.928978e+02
1.660000e-06	-1.045245e-06	-7.087574e-10	-5.634227e+00	-1.886899e+02
1.670000e-06	-9.846164e-07	-6.941123e-10	-5.307417e+00	-1.843872e+02
1.680000e-06	-9.239776e-07	-6.794516e-10	-4.980554e+00	-1.799854e+02
1.690000e-06	-8.632340e-07	-6.647096e-10	-4.653125e+00	-1.754803e+02
1.700000e-06	-8.024231e-07	-6.493711e-10	-4.325334e+00	-1.708680e+02
1.710000e-06	-7.415826e-07	-6.335787e-10	-3.997383e+00	-1.661448e+02
1.720000e-06	-6.806588e-07	-6.170408e-10	-3.668983e+00	-1.613075e+02
1.730000e-06	-6.196547e-07	-5.993561e-10	-3.340150e+00	-1.563532e+02
1.740000e-06	-5.585329e-07	-5.809110e-10	-3.010683e+00	-1.512796e+02
1.750000e-06	-4.974336e-07	-5.619385e-10	-2.681337e+00	-1.460849e+02
1.760000e-06	-4.363712e-07	-5.430285e-10	-2.352189e+00	-1.407679e+02
1.770000e-06	-3.752266e-07	-5.235339e-10	-2.022599e+00	-1.353282e+02
1.780000e-06	-3.140088e-07	-5.024999e-10	-1.692615e+00	-1.297658e+02
1.790000e-06	-2.527033e-07	-4.812711e-10	-1.362157e+00	-1.240818e+02
1.800000e-06	-1.914682e-07	-4.606956e-10	-1.032079e+00	-1.182779e+02
1.810000e-06	-1.302885e-07	-4.388064e-10	-7.022994e-01	-1.123564e+02
1.820000e-06	-6.904465e-08	-4.153088e-10	-3.721742e-01	-1.063207e+02
1.830000e-06	-7.784249e-09	-3.915152e-10	-4.195975e-02	-1.001748e+02
1.840000e-06	5.339482e-08	-3.675221e-10	2.878163e-01	-9.392352e+01
1.850000e-06	1.145757e-07	-3.440155e-10	6.176023e-01	-8.757236e+01
1.860000e-06	1.758694e-07	-3.210351e-10	9.479960e-01	-8.112760e+01
1.870000e-06	2.371124e-07	-2.961997e-10	1.278117e+00	-7.459615e+01
1.880000e-06	2.982253e-07	-2.688307e-10	1.607536e+00	-6.798553e+01
1.890000e-06	3.592974e-07	-2.414436e-10	1.936735e+00	-6.130381e+01
1.900000e-06	4.203764e-07	-2.155507e-10	2.265972e+00	-5.455955e+01
1.910000e-06	4.814345e-07	-1.900179e-10	2.595096e+00	-4.776170e+01
1.920000e-06	5.425243e-07	-1.631521e-10	2.924391e+00	-4.091953e+01
1.930000e-06	6.036108e-07	-1.352244e-10	3.253668e+00	-3.404255e+01
1.940000e-06	6.646632e-07	-1.067212e-10	3.582761e+00	-2.714041e+01
1.950000e-06	7.255394e-07	-7.795556e-11	3.910905e+00	-2.022283e+01
1.960000e-06	7.862778e-07	-4.947664e-11	4.238305e+00	-1.329947e+01
1.970000e-06	8.470929e-07	-2.126701e-11	4.566119e+00	-6.379895e+00
1.980000e-06	9.079328e-07	6.351375e-12	4.894067e+00	5.265709e-01
1.990000e-06	9.687025e-07	3.346091e-11	5.221636e+00	7.410886e+00
2.000000e-06	1.029324e-06	6.175730e-11	5.548406e+00	1.426439e+01
2.010000e-06	1.089823e-06	9.051434e-11	5.874520e+00	2.107886e+01
2.020000e-06	1.150239e-06	1.182572e-10	6.200182e+00	2.784659e+01
2.030000e-06	1.210597e-06	1.453325e-10	6.525529e+00	3.456047e+01
2.040000e-06	1.270929e-06	1.714027e-10	6.850737e+00	4.121397e+01
2.050000e-06	1.331147e-06	1.961413e-10	7.175335e+00	4.780125e+01
2.060000e-06	1.391250e-06	2.206239e-10	7.499310e+00	5.431713e+01
2.070000e-06	1.451331e-06	2.456432e-10	7.823169e+00	6.075718e+01
2.080000e-06	1.511303e-06	2.704612e-10	8.146439e+00	6.711765e+01
2.090000e-06	1.571141e-06	2.947002e-10	8.468986e+00	7.339551e+01
2.100000e-06	1.630953e-06	3.183206e-10	8.791394e+00	7.958845e+01
2.110000e-06	1.690744e-06	3.407699e-10	9.113684e+00	8.569485e+01
2.120000e-06	1.750451e-06	3.622099e-10	9.435525e+00	9.171373e+01
2.130000e-06	1.810075e-06	3.836437e-10	9.756919e+00	9.764473e+01
2.140000e-06	1.869613e-06	4.053003e-10	1.007785e+01	1.034881e+02
2.150000e-06	1.928928e-06	4.273890e-10	1.039758e+01	1.092445e+02
2.160000e-06	1.988157e-06	4.491803e-10	1.071684e+01	1.149153e+02
2.170000e-06	2.047415e-06	4.693479e-10	1.103626e+01	1.205020e+02
2.180000e-06	2.106518e-06	4.882029e-10	1.135485e+01	1.260067e+02
2.190000e-06	2.165356e-06	5.079868e-10	1.167201e+01	1.314315e+02
2.200000e-06	2.223919e-06	5.288891e-10	1.198768e+01	1.367790e+02
2.210000e-06	2.282155e-06	5.482493e-10	1.230159e+01	1.420518e+02
2.220000e-06	2.339961e-06	5.666133e-10	1.261318e+01	1.472526e+02
2.230000e-06	2.397583e-06	5.850421e-10	1.292379e+01	1.523842e+02
2.240000e-06	2.455167e-06	6.026319e-10	1.323418e+01	1.574493e+02
2.250000e-06	2.512374e-06	6.205003e-10	1.354255e+01	1.624506e+02
2.260000e-06	2.569275e-06	6.388419e-10	1.384927e+01	1.673906e+02
2.270000e-06	2.625984e-06	6.556575e-10	1.415495e+01	1.722716e+02
2.280000e-06	2.682336e-06	6.716813e-10	1.445870e+01	1.770959e+02
2.290000e-06	2.738424e-06	6.890481e-10	1.476104e+01	1.818653e+02
2.300000e-06	2.794346e-06	7.074047e-10	1.506248e+01	1.865815e+02
2.310000e-06	2.850167e-06	7.245591e-10	1.536337e+01	1.912459e+02
2.320000e-06	2.905843e-06	7.401141e-10	1.566349e+01	1.958597e+02
2.330000e-06	2.961469e-06	7.550599e-10	1.596332e+01	2.004237e+02
2.340000e-06	3.017039e-06	7.704718e-10	1.626287e+01	2.049384e+02
2.350000e-06	3.072383e-06	7.867434e-10	1.656119e+01	2.094043e+02
2.360000e-06	3.127405e-06	8.028854e-10	1.685778e+01	2.138213e+02
2.370000e-06	3.182164e-06	8.181024e-10	1.715295e+01	2.181893e+02
2.380000e-06	3.236810e-06	8.330932e-10	1.744751e+01	2.225079e+02
2.390000e-06	3.291264e-06	8.495273e-10	1.774103e+01	2.267765e+02
2.400000e-06	3.345445e-06	8.659856e-10	1.803309e+01	2.309944e+02
2.410000e-06	3.399348e-06	8.805559e-10	1.832364e+01	2.351607e+02
2.420000e-06	3.453004e-06	8.948354e-10	1.861287e+01	2.392746e+02
2.430000e-06	3.506466e-06	9.095172e-10	1.890104e+01	2.433350e+02
2.440000e-06	3.559741e-06	9.245633e-10	1.918822e+01	2.473410e+02
2.450000e-06	3.612743e-06	9.399537e-10	1.947391e+01	2.512914e+02
2.460000e-06	3.665396e-06	9.540647e-10	1.975773e+01	2.551852e+02
2.470000e-06	3.717786e-06	9.673428e-10	2.004013e+01	2.590216e+02
2.480000e-06	3.769968e-06	9.817859e-10	2.032141e+01	2.627997e+02
2.490000e-06	3.821791e-06	9.969822e-10	2.060076e+01	2.665186e+02
2.500000e-06	3.873352e-06	1.011375e-09	2.087869e+01	2.701777e+02
2.510000e-06	3.924587e-06	1.024414e-09	2.115486e+01	2.737764e+02
2.520000e-06	3.975327e-06	1.036830e-09	2.142837e+01	2.773144e+02
2.530000e-06	4.025600e-06	1.048968e-09	2.169936e+01	2.807914e+02
2.540000e-06	4.075400e-06	1.060934e-09	2.196779e+01	2.842072e+02
2.550000e-06	4.124943e-06	1.073582e-09	2.223485e+01	2.875619e+02
2.560000e-06	4.174059e-06	1.086870e-09	2.249960e+01	2.908557e+02
2.570000e-06	4.222586e-06	1.099919e-09	2.276118e+01	2.940887e+02
2.580000e-06	4.270753e-06	1.112579e-09	2.302081e+01	2.972614e+02
2.590000e-06	4.318686e-06	1.124780e-09	2.327919e+01	3.003744e+02
2.600000e-06	4.366475e-06	1.135821e-09	2.353679e+01	3.034283e+02
2.610000e-06	4.414058e-06	1.145630e-09	2.379328e+01	3.064237e+02
2.620000e-06	4.461405e-06	1.154832e-09	2.404849e+01	3.093615e+02
2.630000e-06	4.508471e-06	1.164773e-09	2.430219e+01	3.122425e+02
2.640000e-06	4.555095e-06	1.176585e-09	2.455351e+01	3.150676e+02
2.650000e-06	4.601372e-06	1.189031e-09	2.480296e+01	3.178377e+02
2.660000e-06	4.647408e-06	1.200668e-09	2.505111e+01	3.205539e+02
2.670000e-06	4.693077e-06	1.210689e-09	2.529728e+01	3.232170e+02
2.680000e-06	4.738461e-06	1.219677e-09	2.554192e+01	3.258281e+02
2.690000e-06	4.783661e-06	1.228939e-09	2.578556e+01	3.283880e+02
2.700000e-06	4.828464e-06	1.237884e-09	2.602707e+01	3.308979e+02
2.710000e-06	4.872789e-06	1.246466e-09	2.626599e+01	3.333585e+02
2.720000e-06	4.916818e-06	1.255459e-09	2.650332e+01	3.357708e+02
2.730000e-06	4.960693e-06	1.265248e-09	2.673982e+01	3.381357e+02
2.740000e-06	5.004347e-06	1.275397e-09	2.697513e+01	3.404542e+02
2.750000e-06	5.047703e-06	1.284977e-09	2.720884e+01	3.427270e+02
2.760000e-06	5.090642e-06	1.293140e-09	2.744030e+01	3.449550e+02
2.770000e-06	5.132975e-06	1.300645e-09	2.766848e+01	3.471392e+02
2.780000e-06	5.174814e-06	1.309030e-09	2.789401e+01	3.492802e+02
2.790000e-06	5.216149e-06	1.317926e-09	2.811682e+01	3.513791e+02
2.800000e-06	5.256852e-06	1.325462e-09	2.833622e+01	3.534366e+02
2.810000e-06	5.297122e-06	1.331873e-09	2.855329e+01	3.554537e+02
2.820000e-06	5.337040e-06	1.338945e-09	2.876846e+01	3.574312e+02
2.830000e-06	5.376699e-06	1.346655e-09	2.898224e+01	3.593702e+02
2.840000e-06	5.416229e-06	1.354378e-09	2.919532e+01	3.612715e+02
2.850000e-06	5.455435e-06	1.361885e-09	2.940665e+01	3.631362e+02
2.860000e-06	5.494156e-06	1.368715e-09	2.961537e+01	3.649653e+02
2.870000e-06	5.532485e-06	1.375145e-09	2.982198e+01	3.667600e+02
2.880000e-06	5.570506e-06	1.382276e-09	3.002693e+01	3.685213e+02
2.890000e-06	5.608157e-06	1.390210e-09	3.022987e+01	3.702505e+02
2.900000e-06	5.645331e-06	1.397801e-09	3.043026e+01	3.719486e+02
