# Temperatura_=_-31.1
# Concentracion g/m^3_=_7400.0
# C_Vs_to_Am_M_A/Vsm_=_254322799225.57578
# pendiente_HvsI_1/m_=_3716.3
# ordenada_HvsI_A/m_=_1297.0
# frecuencia_Hz_=_136124.53557348132

Tiempo_(s)	Campo_(V.s)	Magnetizacion_(V.s)	Campo_(kA/m)	Magnetizacion_(A/m)
0.000000e+00	-7.156691e-06	-1.406891e-09	-3.842195e+01	-3.510735e+02
1.000000e-08	-7.156926e-06	-1.406330e-09	-3.842321e+01	-3.510900e+02
2.000000e-08	-7.156941e-06	-1.405665e-09	-3.842329e+01	-3.510852e+02
3.000000e-08	-7.156465e-06	-1.404453e-09	-3.842073e+01	-3.510594e+02
4.000000e-08	-7.155380e-06	-1.402313e-09	-3.841491e+01	-3.510134e+02
5.000000e-08	-7.153579e-06	-1.401159e-09	-3.840524e+01	-3.509477e+02
6.000000e-08	-7.151058e-06	-1.402140e-09	-3.839170e+01	-3.508631e+02
7.000000e-08	-7.147892e-06	-1.405115e-09	-3.837471e+01	-3.507604e+02
8.000000e-08	-7.144171e-06	-1.404919e-09	-3.835473e+01	-3.506402e+02
9.000000e-08	-7.139899e-06	-1.388195e-09	-3.833179e+01	-3.505035e+02
1.000000e-07	-7.134807e-06	-1.363001e-09	-3.830445e+01	-3.503510e+02
1.100000e-07	-7.129059e-06	-1.375909e-09	-3.827360e+01	-3.501836e+02
1.200000e-07	-7.123143e-06	-1.425582e-09	-3.824183e+01	-3.500020e+02
1.300000e-07	-7.117010e-06	-1.428836e-09	-3.820891e+01	-3.498070e+02
1.400000e-07	-7.110392e-06	-1.364166e-09	-3.817338e+01	-3.495993e+02
1.500000e-07	-7.103079e-06	-1.348460e-09	-3.813412e+01	-3.493796e+02
1.600000e-07	-7.095228e-06	-1.417427e-09	-3.809197e+01	-3.491484e+02
1.700000e-07	-7.087135e-06	-1.423323e-09	-3.804852e+01	-3.489064e+02
1.800000e-07	-7.078480e-06	-1.330880e-09	-3.800205e+01	-3.486539e+02
1.900000e-07	-7.069088e-06	-1.320167e-09	-3.795163e+01	-3.483914e+02
2.000000e-07	-7.059101e-06	-1.427589e-09	-3.789801e+01	-3.481191e+02
2.100000e-07	-7.048368e-06	-1.440949e-09	-3.784039e+01	-3.478372e+02
2.200000e-07	-7.036998e-06	-1.328333e-09	-3.777935e+01	-3.475459e+02
2.300000e-07	-7.025237e-06	-1.309036e-09	-3.771621e+01	-3.472453e+02
2.400000e-07	-7.013060e-06	-1.399320e-09	-3.765084e+01	-3.469352e+02
2.500000e-07	-7.000303e-06	-1.398221e-09	-3.758235e+01	-3.466156e+02
2.600000e-07	-6.986933e-06	-1.326031e-09	-3.751057e+01	-3.462864e+02
2.700000e-07	-6.973064e-06	-1.346565e-09	-3.743611e+01	-3.459474e+02
2.800000e-07	-6.958599e-06	-1.396784e-09	-3.735846e+01	-3.455983e+02
2.900000e-07	-6.943308e-06	-1.359008e-09	-3.727636e+01	-3.452389e+02
3.000000e-07	-6.927272e-06	-1.327769e-09	-3.719027e+01	-3.448688e+02
3.100000e-07	-6.910751e-06	-1.359075e-09	-3.710157e+01	-3.444877e+02
3.200000e-07	-6.893803e-06	-1.347398e-09	-3.701058e+01	-3.440954e+02
3.300000e-07	-6.876418e-06	-1.315289e-09	-3.691725e+01	-3.436916e+02
3.400000e-07	-6.858640e-06	-1.360035e-09	-3.682180e+01	-3.432759e+02
3.500000e-07	-6.840450e-06	-1.382847e-09	-3.672415e+01	-3.428481e+02
3.600000e-07	-6.821688e-06	-1.311473e-09	-3.662342e+01	-3.424080e+02
3.700000e-07	-6.802287e-06	-1.293271e-09	-3.651927e+01	-3.419554e+02
3.800000e-07	-6.782528e-06	-1.358606e-09	-3.641318e+01	-3.414903e+02
3.900000e-07	-6.762561e-06	-1.351093e-09	-3.630599e+01	-3.410125e+02
4.000000e-07	-6.742102e-06	-1.293211e-09	-3.619615e+01	-3.405219e+02
4.100000e-07	-6.721140e-06	-1.316767e-09	-3.608361e+01	-3.400187e+02
4.200000e-07	-6.699713e-06	-1.349930e-09	-3.596858e+01	-3.395029e+02
4.300000e-07	-6.677797e-06	-1.312399e-09	-3.585092e+01	-3.389745e+02
4.400000e-07	-6.655429e-06	-1.296600e-09	-3.573083e+01	-3.384339e+02
4.500000e-07	-6.632670e-06	-1.319706e-09	-3.560864e+01	-3.378811e+02
4.600000e-07	-6.609503e-06	-1.303752e-09	-3.548427e+01	-3.373164e+02
4.700000e-07	-6.585905e-06	-1.290728e-09	-3.535758e+01	-3.367400e+02
4.800000e-07	-6.562020e-06	-1.317609e-09	-3.522935e+01	-3.361521e+02
4.900000e-07	-6.537768e-06	-1.307350e-09	-3.509915e+01	-3.355531e+02
5.000000e-07	-6.512852e-06	-1.268556e-09	-3.496538e+01	-3.349430e+02
5.100000e-07	-6.487073e-06	-1.278831e-09	-3.482698e+01	-3.343222e+02
5.200000e-07	-6.460513e-06	-1.297957e-09	-3.468439e+01	-3.336909e+02
5.300000e-07	-6.433345e-06	-1.278817e-09	-3.453854e+01	-3.330490e+02
5.400000e-07	-6.405745e-06	-1.270897e-09	-3.439036e+01	-3.323967e+02
5.500000e-07	-6.377900e-06	-1.281440e-09	-3.424087e+01	-3.317340e+02
5.600000e-07	-6.349793e-06	-1.272150e-09	-3.408997e+01	-3.310609e+02
5.700000e-07	-6.321302e-06	-1.262498e-09	-3.393701e+01	-3.303772e+02
5.800000e-07	-6.292334e-06	-1.266665e-09	-3.378149e+01	-3.296827e+02
5.900000e-07	-6.262858e-06	-1.259089e-09	-3.362325e+01	-3.289770e+02
6.000000e-07	-6.233041e-06	-1.249559e-09	-3.346317e+01	-3.282599e+02
6.100000e-07	-6.202792e-06	-1.256033e-09	-3.330077e+01	-3.275308e+02
6.200000e-07	-6.171970e-06	-1.256835e-09	-3.313530e+01	-3.267892e+02
6.300000e-07	-6.140596e-06	-1.243853e-09	-3.296686e+01	-3.260345e+02
6.400000e-07	-6.108898e-06	-1.235709e-09	-3.279668e+01	-3.252659e+02
6.500000e-07	-6.077092e-06	-1.232486e-09	-3.262593e+01	-3.244828e+02
6.600000e-07	-6.045018e-06	-1.229060e-09	-3.245373e+01	-3.236842e+02
6.700000e-07	-6.012430e-06	-1.228637e-09	-3.227878e+01	-3.228694e+02
6.800000e-07	-5.979155e-06	-1.225830e-09	-3.210014e+01	-3.220374e+02
6.900000e-07	-5.945093e-06	-1.218256e-09	-3.191727e+01	-3.211873e+02
7.000000e-07	-5.910306e-06	-1.211878e-09	-3.173051e+01	-3.203182e+02
7.100000e-07	-5.875034e-06	-1.207893e-09	-3.154114e+01	-3.194292e+02
7.200000e-07	-5.839458e-06	-1.204408e-09	-3.135015e+01	-3.185194e+02
7.300000e-07	-5.803639e-06	-1.200458e-09	-3.115785e+01	-3.175879e+02
7.400000e-07	-5.767565e-06	-1.195471e-09	-3.096418e+01	-3.166338e+02
7.500000e-07	-5.731180e-06	-1.191430e-09	-3.076884e+01	-3.156564e+02
7.600000e-07	-5.694334e-06	-1.190116e-09	-3.057103e+01	-3.146551e+02
7.700000e-07	-5.657029e-06	-1.185214e-09	-3.037075e+01	-3.136291e+02
7.800000e-07	-5.619394e-06	-1.175131e-09	-3.016870e+01	-3.125778e+02
7.900000e-07	-5.581343e-06	-1.167950e-09	-2.996441e+01	-3.115009e+02
8.000000e-07	-5.542823e-06	-1.165053e-09	-2.975761e+01	-3.103980e+02
8.100000e-07	-5.503848e-06	-1.163383e-09	-2.954837e+01	-3.092687e+02
8.200000e-07	-5.464433e-06	-1.160629e-09	-2.933676e+01	-3.081128e+02
8.300000e-07	-5.424768e-06	-1.153874e-09	-2.912382e+01	-3.069304e+02
8.400000e-07	-5.385020e-06	-1.145839e-09	-2.891042e+01	-3.057214e+02
8.500000e-07	-5.344878e-06	-1.140888e-09	-2.869491e+01	-3.044859e+02
8.600000e-07	-5.304235e-06	-1.137276e-09	-2.847671e+01	-3.032241e+02
8.700000e-07	-5.263196e-06	-1.132334e-09	-2.825639e+01	-3.019362e+02
8.800000e-07	-5.221623e-06	-1.125854e-09	-2.803319e+01	-3.006226e+02
8.900000e-07	-5.179489e-06	-1.119578e-09	-2.780699e+01	-2.992837e+02
9.000000e-07	-5.136807e-06	-1.114515e-09	-2.757785e+01	-2.979199e+02
9.100000e-07	-5.093675e-06	-1.109263e-09	-2.734628e+01	-2.965316e+02
9.200000e-07	-5.050128e-06	-1.101935e-09	-2.711250e+01	-2.951194e+02
9.300000e-07	-5.006266e-06	-1.093313e-09	-2.687701e+01	-2.936837e+02
9.400000e-07	-4.962228e-06	-1.086589e-09	-2.664059e+01	-2.922252e+02
9.500000e-07	-4.917914e-06	-1.081810e-09	-2.640268e+01	-2.907442e+02
9.600000e-07	-4.873124e-06	-1.075874e-09	-2.616222e+01	-2.892413e+02
9.700000e-07	-4.827900e-06	-1.067912e-09	-2.591942e+01	-2.877169e+02
9.800000e-07	-4.782410e-06	-1.059897e-09	-2.567520e+01	-2.861714e+02
9.900000e-07	-4.736646e-06	-1.053209e-09	-2.542951e+01	-2.846051e+02
1.000000e-06	-4.690564e-06	-1.047338e-09	-2.518211e+01	-2.830184e+02
1.010000e-06	-4.644158e-06	-1.041114e-09	-2.493297e+01	-2.814115e+02
1.020000e-06	-4.597416e-06	-1.034336e-09	-2.468203e+01	-2.797845e+02
1.030000e-06	-4.550384e-06	-1.027682e-09	-2.442953e+01	-2.781375e+02
1.040000e-06	-4.503078e-06	-1.021834e-09	-2.417556e+01	-2.764706e+02
1.050000e-06	-4.455516e-06	-1.016369e-09	-2.392022e+01	-2.747836e+02
1.060000e-06	-4.407733e-06	-1.009502e-09	-2.366368e+01	-2.730764e+02
1.070000e-06	-4.359743e-06	-1.001045e-09	-2.340604e+01	-2.713488e+02
1.080000e-06	-4.311466e-06	-9.927643e-10	-2.314686e+01	-2.696005e+02
1.090000e-06	-4.262683e-06	-9.861289e-10	-2.288496e+01	-2.678311e+02
1.100000e-06	-4.213223e-06	-9.799426e-10	-2.261942e+01	-2.660403e+02
1.110000e-06	-4.163136e-06	-9.722853e-10	-2.235052e+01	-2.642276e+02
1.120000e-06	-4.112735e-06	-9.628719e-10	-2.207993e+01	-2.623925e+02
1.130000e-06	-4.062065e-06	-9.531715e-10	-2.180791e+01	-2.605344e+02
1.140000e-06	-4.010989e-06	-9.451851e-10	-2.153369e+01	-2.586528e+02
1.150000e-06	-3.959600e-06	-9.383649e-10	-2.125780e+01	-2.567470e+02
1.160000e-06	-3.907954e-06	-9.307936e-10	-2.098054e+01	-2.548165e+02
1.170000e-06	-3.855932e-06	-9.228698e-10	-2.070125e+01	-2.528607e+02
1.180000e-06	-3.803582e-06	-9.154701e-10	-2.042019e+01	-2.508788e+02
1.190000e-06	-3.751037e-06	-9.073932e-10	-2.013810e+01	-2.488704e+02
1.200000e-06	-3.698209e-06	-8.989849e-10	-1.985448e+01	-2.468349e+02
1.210000e-06	-3.645108e-06	-8.908389e-10	-1.956940e+01	-2.447716e+02
1.220000e-06	-3.591707e-06	-8.833586e-10	-1.928271e+01	-2.426801e+02
1.230000e-06	-3.538014e-06	-8.761999e-10	-1.899444e+01	-2.405599e+02
1.240000e-06	-3.484141e-06	-8.687325e-10	-1.870522e+01	-2.384104e+02
1.250000e-06	-3.430039e-06	-8.597921e-10	-1.841476e+01	-2.362313e+02
1.260000e-06	-3.375628e-06	-8.489096e-10	-1.812265e+01	-2.340222e+02
1.270000e-06	-3.320992e-06	-8.384569e-10	-1.782932e+01	-2.317827e+02
1.280000e-06	-3.266166e-06	-8.297315e-10	-1.753498e+01	-2.295125e+02
1.290000e-06	-3.211111e-06	-8.219963e-10	-1.723941e+01	-2.272113e+02
1.300000e-06	-3.155915e-06	-8.133405e-10	-1.694308e+01	-2.248790e+02
1.310000e-06	-3.100532e-06	-8.029627e-10	-1.664575e+01	-2.225152e+02
1.320000e-06	-3.045011e-06	-7.920302e-10	-1.634767e+01	-2.201199e+02
1.330000e-06	-2.989356e-06	-7.810676e-10	-1.604888e+01	-2.176929e+02
1.340000e-06	-2.933486e-06	-7.707350e-10	-1.574893e+01	-2.152341e+02
1.350000e-06	-2.877532e-06	-7.612159e-10	-1.544853e+01	-2.127434e+02
1.360000e-06	-2.821512e-06	-7.520499e-10	-1.514778e+01	-2.102207e+02
1.370000e-06	-2.765266e-06	-7.438293e-10	-1.484581e+01	-2.076660e+02
1.380000e-06	-2.708823e-06	-7.358367e-10	-1.454279e+01	-2.050792e+02
1.390000e-06	-2.652264e-06	-7.266749e-10	-1.423914e+01	-2.024602e+02
1.400000e-06	-2.595474e-06	-7.160078e-10	-1.393426e+01	-1.998090e+02
1.410000e-06	-2.538347e-06	-7.050515e-10	-1.362756e+01	-1.971255e+02
1.420000e-06	-2.480831e-06	-6.948521e-10	-1.331877e+01	-1.944096e+02
1.430000e-06	-2.422998e-06	-6.849656e-10	-1.300829e+01	-1.916613e+02
1.440000e-06	-2.364890e-06	-6.745914e-10	-1.269633e+01	-1.888804e+02
1.450000e-06	-2.306463e-06	-6.639652e-10	-1.238265e+01	-1.860669e+02
1.460000e-06	-2.247782e-06	-6.535417e-10	-1.206761e+01	-1.832206e+02
1.470000e-06	-2.188945e-06	-6.428848e-10	-1.175173e+01	-1.803413e+02
1.480000e-06	-2.129985e-06	-6.326307e-10	-1.143519e+01	-1.774289e+02
1.490000e-06	-2.070793e-06	-6.225766e-10	-1.111741e+01	-1.744831e+02
1.500000e-06	-2.011299e-06	-6.110390e-10	-1.079801e+01	-1.715037e+02
1.510000e-06	-1.951677e-06	-5.987547e-10	-1.047792e+01	-1.684905e+02
1.520000e-06	-1.892040e-06	-5.867680e-10	-1.015775e+01	-1.654431e+02
1.530000e-06	-1.832346e-06	-5.750687e-10	-9.837271e+00	-1.623613e+02
1.540000e-06	-1.772564e-06	-5.633975e-10	-9.516319e+00	-1.592447e+02
1.550000e-06	-1.712713e-06	-5.520094e-10	-9.194997e+00	-1.560930e+02
1.560000e-06	-1.652807e-06	-5.414555e-10	-8.873385e+00	-1.529059e+02
1.570000e-06	-1.592832e-06	-5.311848e-10	-8.551399e+00	-1.496829e+02
1.580000e-06	-1.532799e-06	-5.204576e-10	-8.229101e+00	-1.464236e+02
1.590000e-06	-1.472660e-06	-5.087696e-10	-7.906233e+00	-1.431277e+02
1.600000e-06	-1.412399e-06	-4.964767e-10	-7.582708e+00	-1.397948e+02
1.610000e-06	-1.352066e-06	-4.838232e-10	-7.258803e+00	-1.364244e+02
1.620000e-06	-1.291589e-06	-4.712293e-10	-6.934119e+00	-1.330161e+02
1.630000e-06	-1.230945e-06	-4.597565e-10	-6.608541e+00	-1.295696e+02
1.640000e-06	-1.170104e-06	-4.477770e-10	-6.281910e+00	-1.260844e+02
1.650000e-06	-1.109239e-06	-4.337667e-10	-5.955140e+00	-1.225603e+02
1.660000e-06	-1.048490e-06	-4.192739e-10	-5.629001e+00	-1.189968e+02
1.670000e-06	-9.877071e-07	-4.051843e-10	-5.302678e+00	-1.153936e+02
1.680000e-06	-9.268087e-07	-3.913397e-10	-4.975734e+00	-1.117505e+02
1.690000e-06	-8.658504e-07	-3.784540e-10	-4.648469e+00	-1.080672e+02
1.700000e-06	-8.048327e-07	-3.660454e-10	-4.320885e+00	-1.043436e+02
1.710000e-06	-7.437219e-07	-3.528529e-10	-3.992801e+00	-1.005795e+02
1.720000e-06	-6.826309e-07	-3.389157e-10	-3.664823e+00	-9.677488e+01
1.730000e-06	-6.215710e-07	-3.247098e-10	-3.337012e+00	-9.292974e+01
1.740000e-06	-5.604215e-07	-3.103039e-10	-3.008720e+00	-8.904418e+01
1.750000e-06	-4.990720e-07	-2.956937e-10	-2.679355e+00	-8.511838e+01
1.760000e-06	-4.376823e-07	-2.815941e-10	-2.349774e+00	-8.115260e+01
1.770000e-06	-3.763672e-07	-2.675847e-10	-2.020593e+00	-7.714723e+01
1.780000e-06	-3.150083e-07	-2.520502e-10	-1.691177e+00	-7.310275e+01
1.790000e-06	-2.535794e-07	-2.360205e-10	-1.361385e+00	-6.901975e+01
1.800000e-06	-1.921105e-07	-2.210537e-10	-1.031379e+00	-6.489894e+01
1.810000e-06	-1.305850e-07	-2.062289e-10	-7.010682e-01	-6.074117e+01
1.820000e-06	-6.913564e-08	-1.911957e-10	-3.711667e-01	-5.654739e+01
1.830000e-06	-7.734946e-09	-1.758500e-10	-4.152640e-02	-5.231871e+01
1.840000e-06	5.370130e-08	-1.604288e-10	2.883048e-01	-4.805634e+01
1.850000e-06	1.151715e-07	-1.458882e-10	6.183182e-01	-4.376166e+01
1.860000e-06	1.765843e-07	-1.318399e-10	9.480236e-01	-3.943615e+01
1.870000e-06	2.378962e-07	-1.163712e-10	1.277187e+00	-3.508143e+01
1.880000e-06	2.992963e-07	-9.858290e-11	1.606824e+00	-3.069925e+01
1.890000e-06	3.606889e-07	-8.083782e-11	1.936421e+00	-2.629149e+01
1.900000e-06	4.220015e-07	-6.553421e-11	2.265589e+00	-2.186014e+01
1.910000e-06	4.832307e-07	-5.175894e-11	2.594308e+00	-1.740731e+01
1.920000e-06	5.444149e-07	-3.672313e-11	2.922786e+00	-1.293520e+01
1.930000e-06	6.056896e-07	-2.055083e-11	3.251750e+00	-8.446105e+00
1.940000e-06	6.669265e-07	-3.902175e-12	3.580511e+00	-3.942422e+00
1.950000e-06	7.279826e-07	1.373905e-11	3.908302e+00	5.733937e-01
1.960000e-06	7.889044e-07	3.095612e-11	4.235371e+00	5.098823e+00
1.970000e-06	8.498416e-07	4.711588e-11	4.562523e+00	9.631299e+00
1.980000e-06	9.108333e-07	6.365285e-11	4.889968e+00	1.416822e+01
1.990000e-06	9.717492e-07	8.076466e-11	5.217005e+00	1.870695e+01
2.000000e-06	1.032426e-06	9.773361e-11	5.542761e+00	2.324487e+01
2.010000e-06	1.093015e-06	1.144053e-10	5.868043e+00	2.777935e+01
2.020000e-06	1.153752e-06	1.307243e-10	6.194120e+00	3.230777e+01
2.030000e-06	1.214517e-06	1.469311e-10	6.520346e+00	3.682757e+01
2.040000e-06	1.275086e-06	1.623120e-10	6.845521e+00	4.133621e+01
2.050000e-06	1.335504e-06	1.767864e-10	7.169886e+00	4.583121e+01
2.060000e-06	1.395806e-06	1.917362e-10	7.493627e+00	5.031017e+01
2.070000e-06	1.455937e-06	2.077936e-10	7.816454e+00	5.477075e+01
2.080000e-06	1.515964e-06	2.251596e-10	8.138717e+00	5.921072e+01
2.090000e-06	1.575993e-06	2.421030e-10	8.460993e+00	6.362791e+01
2.100000e-06	1.635979e-06	2.575035e-10	8.783037e+00	6.802027e+01
2.110000e-06	1.695794e-06	2.724805e-10	9.104168e+00	7.238587e+01
2.120000e-06	1.755518e-06	2.869022e-10	9.424802e+00	7.672285e+01
2.130000e-06	1.815225e-06	3.017107e-10	9.745350e+00	8.102948e+01
2.140000e-06	1.874907e-06	3.172157e-10	1.006577e+01	8.530415e+01
2.150000e-06	1.934531e-06	3.324963e-10	1.038586e+01	8.954533e+01
2.160000e-06	1.994064e-06	3.472333e-10	1.070548e+01	9.375164e+01
2.170000e-06	2.053509e-06	3.611715e-10	1.102462e+01	9.792177e+01
2.180000e-06	2.112861e-06	3.744122e-10	1.134326e+01	1.020545e+02
2.190000e-06	2.172056e-06	3.884367e-10	1.166106e+01	1.061488e+02
2.200000e-06	2.231052e-06	4.042074e-10	1.197779e+01	1.102036e+02
2.210000e-06	2.289760e-06	4.194958e-10	1.229298e+01	1.142180e+02
2.220000e-06	2.348189e-06	4.336589e-10	1.260666e+01	1.181911e+02
2.230000e-06	2.406398e-06	4.479494e-10	1.291917e+01	1.221222e+02
2.240000e-06	2.464268e-06	4.618315e-10	1.322985e+01	1.260106e+02
2.250000e-06	2.521763e-06	4.752023e-10	1.353852e+01	1.298556e+02
2.260000e-06	2.578945e-06	4.889635e-10	1.384552e+01	1.336567e+02
2.270000e-06	2.635750e-06	5.030065e-10	1.415048e+01	1.374134e+02
2.280000e-06	2.692338e-06	5.163206e-10	1.445429e+01	1.411250e+02
2.290000e-06	2.748799e-06	5.298509e-10	1.475741e+01	1.447913e+02
2.300000e-06	2.805062e-06	5.441595e-10	1.505946e+01	1.484118e+02
2.310000e-06	2.861144e-06	5.577582e-10	1.536055e+01	1.519862e+02
2.320000e-06	2.917064e-06	5.701675e-10	1.566077e+01	1.555141e+02
2.330000e-06	2.972836e-06	5.821099e-10	1.596019e+01	1.589952e+02
2.340000e-06	3.028413e-06	5.953114e-10	1.625856e+01	1.624294e+02
2.350000e-06	3.083831e-06	6.093164e-10	1.655608e+01	1.658164e+02
2.360000e-06	3.139202e-06	6.224443e-10	1.685335e+01	1.691561e+02
2.370000e-06	3.194455e-06	6.347434e-10	1.714999e+01	1.724483e+02
2.380000e-06	3.249423e-06	6.460425e-10	1.744509e+01	1.756930e+02
2.390000e-06	3.304045e-06	6.576641e-10	1.773834e+01	1.788902e+02
2.400000e-06	3.358379e-06	6.702606e-10	1.803004e+01	1.820400e+02
2.410000e-06	3.412545e-06	6.824391e-10	1.832084e+01	1.851424e+02
2.420000e-06	3.466539e-06	6.948681e-10	1.861072e+01	1.881977e+02
2.430000e-06	3.520231e-06	7.069097e-10	1.889897e+01	1.912060e+02
2.440000e-06	3.573622e-06	7.183578e-10	1.918562e+01	1.941678e+02
2.450000e-06	3.626852e-06	7.304505e-10	1.947139e+01	1.970833e+02
2.460000e-06	3.679884e-06	7.420040e-10	1.975610e+01	1.999532e+02
2.470000e-06	3.732629e-06	7.517955e-10	2.003927e+01	2.027779e+02
2.480000e-06	3.785077e-06	7.616923e-10	2.032085e+01	2.055581e+02
2.490000e-06	3.837185e-06	7.733533e-10	2.060059e+01	2.082944e+02
2.500000e-06	3.889026e-06	7.853609e-10	2.087891e+01	2.109877e+02
2.510000e-06	3.940603e-06	7.956882e-10	2.115582e+01	2.136389e+02
2.520000e-06	3.991713e-06	8.048222e-10	2.143021e+01	2.162487e+02
2.530000e-06	4.042321e-06	8.135573e-10	2.170190e+01	2.188183e+02
2.540000e-06	4.092613e-06	8.221953e-10	2.197190e+01	2.213486e+02
2.550000e-06	4.142521e-06	8.317264e-10	2.223985e+01	2.238408e+02
2.560000e-06	4.191909e-06	8.408312e-10	2.250500e+01	2.262959e+02
2.570000e-06	4.240792e-06	8.489926e-10	2.276743e+01	2.287151e+02
2.580000e-06	4.289321e-06	8.573759e-10	2.302797e+01	2.310996e+02
2.590000e-06	4.337624e-06	8.659631e-10	2.328729e+01	2.334505e+02
2.600000e-06	4.385677e-06	8.751596e-10	2.354527e+01	2.357690e+02
2.610000e-06	4.433450e-06	8.843831e-10	2.380175e+01	2.380562e+02
2.620000e-06	4.480906e-06	8.923175e-10	2.405652e+01	2.403133e+02
2.630000e-06	4.528045e-06	8.998639e-10	2.430960e+01	2.425413e+02
2.640000e-06	4.574787e-06	9.082196e-10	2.456054e+01	2.447413e+02
2.650000e-06	4.621158e-06	9.171212e-10	2.480950e+01	2.469143e+02
2.660000e-06	4.667328e-06	9.250064e-10	2.505737e+01	2.490612e+02
2.670000e-06	4.713150e-06	9.316716e-10	2.530337e+01	2.511829e+02
2.680000e-06	4.758541e-06	9.389576e-10	2.554706e+01	2.532800e+02
2.690000e-06	4.803703e-06	9.477201e-10	2.578952e+01	2.553533e+02
2.700000e-06	4.848521e-06	9.562729e-10	2.603013e+01	2.574034e+02
2.710000e-06	4.892954e-06	9.625868e-10	2.626868e+01	2.594309e+02
2.720000e-06	4.937101e-06	9.678608e-10	2.650569e+01	2.614360e+02
2.730000e-06	4.981024e-06	9.750382e-10	2.674150e+01	2.634192e+02
2.740000e-06	5.024844e-06	9.839785e-10	2.697675e+01	2.653806e+02
2.750000e-06	5.068360e-06	9.918657e-10	2.721037e+01	2.673205e+02
2.760000e-06	5.111473e-06	9.977654e-10	2.744183e+01	2.692388e+02
2.770000e-06	5.154216e-06	1.003557e-09	2.767131e+01	2.711356e+02
2.780000e-06	5.196331e-06	1.010560e-09	2.789741e+01	2.730108e+02
2.790000e-06	5.237897e-06	1.018069e-09	2.812056e+01	2.748643e+02
2.800000e-06	5.278965e-06	1.024626e-09	2.834105e+01	2.766958e+02
2.810000e-06	5.319479e-06	1.029943e-09	2.855855e+01	2.785050e+02
2.820000e-06	5.359623e-06	1.035698e-09	2.877407e+01	2.802918e+02
2.830000e-06	5.399526e-06	1.042740e-09	2.898830e+01	2.820558e+02
2.840000e-06	5.439221e-06	1.049615e-09	2.920141e+01	2.837967e+02
2.850000e-06	5.478668e-06	1.055257e-09	2.941319e+01	2.855140e+02
2.860000e-06	5.517725e-06	1.060060e-09	2.962287e+01	2.872075e+02
2.870000e-06	5.556302e-06	1.065666e-09	2.982997e+01	2.888769e+02
2.880000e-06	5.594493e-06	1.073299e-09	3.003501e+01	2.905216e+02
2.890000e-06	5.632235e-06	1.081567e-09	3.023763e+01	2.921415e+02
2.900000e-06	5.669485e-06	1.088553e-09	3.043762e+01	2.937363e+02
