# Temperatura_=_20.0
# Concentracion g/m^3_=_7400.0
# C_Vs_to_Am_M_A/Vsm_=_254322799225.57578
# pendiente_HvsI_1/m_=_3716.3
# ordenada_HvsI_A/m_=_1297.0
# frecuencia_Hz_=_136127.7217734303

Tiempo_(s)	Campo_(V.s)	Magnetizacion_(V.s)	Campo_(kA/m)	Magnetizacion_(A/m)
0.000000e+00	-7.121136e-06	-1.728091e-09	-3.842092e+01	-4.329599e+02
1.000000e-08	-7.121455e-06	-1.728276e-09	-3.842263e+01	-4.330533e+02
2.000000e-08	-7.121366e-06	-1.726819e-09	-3.842216e+01	-4.331294e+02
3.000000e-08	-7.120726e-06	-1.723373e-09	-3.841870e+01	-4.331888e+02
4.000000e-08	-7.119315e-06	-1.720568e-09	-3.841109e+01	-4.332320e+02
5.000000e-08	-7.117131e-06	-1.720621e-09	-3.839931e+01	-4.332593e+02
6.000000e-08	-7.114213e-06	-1.722529e-09	-3.838356e+01	-4.332715e+02
7.000000e-08	-7.110754e-06	-1.729091e-09	-3.836490e+01	-4.332689e+02
8.000000e-08	-7.106948e-06	-1.733561e-09	-3.834436e+01	-4.332522e+02
9.000000e-08	-7.102497e-06	-1.705320e-09	-3.832035e+01	-4.332218e+02
1.000000e-07	-7.097215e-06	-1.666273e-09	-3.829185e+01	-4.331782e+02
1.100000e-07	-7.091349e-06	-1.704534e-09	-3.826020e+01	-4.331218e+02
1.200000e-07	-7.085252e-06	-1.781885e-09	-3.822731e+01	-4.330532e+02
1.300000e-07	-7.078928e-06	-1.749730e-09	-3.819319e+01	-4.329726e+02
1.400000e-07	-7.072042e-06	-1.651851e-09	-3.815604e+01	-4.328803e+02
1.500000e-07	-7.064534e-06	-1.683521e-09	-3.811553e+01	-4.327766e+02
1.600000e-07	-7.056792e-06	-1.789572e-09	-3.807376e+01	-4.326616e+02
1.700000e-07	-7.048848e-06	-1.732470e-09	-3.803090e+01	-4.325354e+02
1.800000e-07	-7.040236e-06	-1.599666e-09	-3.798443e+01	-4.323979e+02
1.900000e-07	-7.030745e-06	-1.665919e-09	-3.793322e+01	-4.322490e+02
2.000000e-07	-7.020836e-06	-1.809101e-09	-3.787976e+01	-4.320887e+02
2.100000e-07	-7.010669e-06	-1.739791e-09	-3.782491e+01	-4.319165e+02
2.200000e-07	-6.999723e-06	-1.606827e-09	-3.776585e+01	-4.317322e+02
2.300000e-07	-6.987911e-06	-1.667429e-09	-3.770212e+01	-4.315354e+02
2.400000e-07	-6.975523e-06	-1.757055e-09	-3.763528e+01	-4.313255e+02
2.500000e-07	-6.962693e-06	-1.683154e-09	-3.756606e+01	-4.311019e+02
2.600000e-07	-6.949193e-06	-1.636639e-09	-3.749323e+01	-4.308642e+02
2.700000e-07	-6.935241e-06	-1.716051e-09	-3.741795e+01	-4.306116e+02
2.800000e-07	-6.920799e-06	-1.724581e-09	-3.734003e+01	-4.303436e+02
2.900000e-07	-6.905504e-06	-1.656050e-09	-3.725751e+01	-4.300593e+02
3.000000e-07	-6.889347e-06	-1.679457e-09	-3.717033e+01	-4.297582e+02
3.100000e-07	-6.872748e-06	-1.708851e-09	-3.708078e+01	-4.294395e+02
3.200000e-07	-6.855903e-06	-1.639022e-09	-3.698989e+01	-4.291027e+02
3.300000e-07	-6.838595e-06	-1.643807e-09	-3.689651e+01	-4.287471e+02
3.400000e-07	-6.820919e-06	-1.735579e-09	-3.680114e+01	-4.283721e+02
3.500000e-07	-6.802672e-06	-1.701519e-09	-3.670269e+01	-4.279774e+02
3.600000e-07	-6.783691e-06	-1.608380e-09	-3.660029e+01	-4.275624e+02
3.700000e-07	-6.764288e-06	-1.658508e-09	-3.649560e+01	-4.271268e+02
3.800000e-07	-6.744603e-06	-1.714599e-09	-3.638939e+01	-4.266704e+02
3.900000e-07	-6.724572e-06	-1.646699e-09	-3.628132e+01	-4.261930e+02
4.000000e-07	-6.704233e-06	-1.624141e-09	-3.617158e+01	-4.256946e+02
4.100000e-07	-6.683452e-06	-1.683943e-09	-3.605946e+01	-4.251753e+02
4.200000e-07	-6.662064e-06	-1.671722e-09	-3.594406e+01	-4.246352e+02
4.300000e-07	-6.640233e-06	-1.631803e-09	-3.582628e+01	-4.240747e+02
4.400000e-07	-6.618005e-06	-1.654355e-09	-3.570635e+01	-4.234939e+02
4.500000e-07	-6.595128e-06	-1.650516e-09	-3.558293e+01	-4.228935e+02
4.600000e-07	-6.571816e-06	-1.616575e-09	-3.545715e+01	-4.222740e+02
4.700000e-07	-6.548248e-06	-1.641823e-09	-3.532999e+01	-4.216360e+02
4.800000e-07	-6.524371e-06	-1.663336e-09	-3.520116e+01	-4.209802e+02
4.900000e-07	-6.500076e-06	-1.623269e-09	-3.507009e+01	-4.203073e+02
5.000000e-07	-6.475159e-06	-1.609966e-09	-3.493565e+01	-4.196182e+02
5.100000e-07	-6.449411e-06	-1.631397e-09	-3.479673e+01	-4.189138e+02
5.200000e-07	-6.422891e-06	-1.621287e-09	-3.465365e+01	-4.181947e+02
5.300000e-07	-6.395860e-06	-1.608573e-09	-3.450781e+01	-4.174619e+02
5.400000e-07	-6.368480e-06	-1.619355e-09	-3.436008e+01	-4.167162e+02
5.500000e-07	-6.340750e-06	-1.615058e-09	-3.421047e+01	-4.159584e+02
5.600000e-07	-6.312678e-06	-1.605364e-09	-3.405901e+01	-4.151891e+02
5.700000e-07	-6.284171e-06	-1.607940e-09	-3.390521e+01	-4.144092e+02
5.800000e-07	-6.255170e-06	-1.599396e-09	-3.374874e+01	-4.136192e+02
5.900000e-07	-6.225726e-06	-1.587329e-09	-3.358987e+01	-4.128195e+02
6.000000e-07	-6.195863e-06	-1.590133e-09	-3.342876e+01	-4.120107e+02
6.100000e-07	-6.165475e-06	-1.589150e-09	-3.326480e+01	-4.111929e+02
6.200000e-07	-6.134551e-06	-1.581498e-09	-3.309796e+01	-4.103664e+02
6.300000e-07	-6.103338e-06	-1.577899e-09	-3.292955e+01	-4.095312e+02
6.400000e-07	-6.071835e-06	-1.567748e-09	-3.275958e+01	-4.086873e+02
6.500000e-07	-6.040022e-06	-1.556921e-09	-3.258794e+01	-4.078343e+02
6.600000e-07	-6.008012e-06	-1.557524e-09	-3.241523e+01	-4.069719e+02
6.700000e-07	-5.975582e-06	-1.555306e-09	-3.224026e+01	-4.060997e+02
6.800000e-07	-5.942476e-06	-1.547674e-09	-3.206165e+01	-4.052170e+02
6.900000e-07	-5.908675e-06	-1.544309e-09	-3.187928e+01	-4.043230e+02
7.000000e-07	-5.874221e-06	-1.537025e-09	-3.169339e+01	-4.034168e+02
7.100000e-07	-5.839265e-06	-1.526411e-09	-3.150479e+01	-4.024976e+02
7.200000e-07	-5.803850e-06	-1.524036e-09	-3.131371e+01	-4.015641e+02
7.300000e-07	-5.768128e-06	-1.522769e-09	-3.112098e+01	-4.006152e+02
7.400000e-07	-5.732179e-06	-1.515927e-09	-3.092703e+01	-3.996497e+02
7.500000e-07	-5.695870e-06	-1.513716e-09	-3.073112e+01	-3.986662e+02
7.600000e-07	-5.659208e-06	-1.514272e-09	-3.053333e+01	-3.976633e+02
7.700000e-07	-5.622152e-06	-1.506983e-09	-3.033339e+01	-3.966397e+02
7.800000e-07	-5.584655e-06	-1.496604e-09	-3.013108e+01	-3.955940e+02
7.900000e-07	-5.546712e-06	-1.490943e-09	-2.992637e+01	-3.945247e+02
8.000000e-07	-5.508263e-06	-1.486890e-09	-2.971892e+01	-3.934305e+02
8.100000e-07	-5.469399e-06	-1.483361e-09	-2.950924e+01	-3.923100e+02
8.200000e-07	-5.430168e-06	-1.479550e-09	-2.929758e+01	-3.911620e+02
8.300000e-07	-5.390701e-06	-1.473138e-09	-2.908464e+01	-3.899851e+02
8.400000e-07	-5.351054e-06	-1.465670e-09	-2.887073e+01	-3.887783e+02
8.500000e-07	-5.311100e-06	-1.459990e-09	-2.865516e+01	-3.875405e+02
8.600000e-07	-5.270569e-06	-1.455470e-09	-2.843648e+01	-3.862707e+02
8.700000e-07	-5.229458e-06	-1.450593e-09	-2.821468e+01	-3.849681e+02
8.800000e-07	-5.188038e-06	-1.444600e-09	-2.799120e+01	-3.836320e+02
8.900000e-07	-5.146209e-06	-1.438375e-09	-2.776552e+01	-3.822618e+02
9.000000e-07	-5.103740e-06	-1.433276e-09	-2.753639e+01	-3.808571e+02
9.100000e-07	-5.060761e-06	-1.427265e-09	-2.730450e+01	-3.794175e+02
9.200000e-07	-5.017444e-06	-1.418964e-09	-2.707079e+01	-3.779428e+02
9.300000e-07	-4.973840e-06	-1.410742e-09	-2.683553e+01	-3.764332e+02
9.400000e-07	-4.929988e-06	-1.405053e-09	-2.659894e+01	-3.748885e+02
9.500000e-07	-4.885823e-06	-1.400563e-09	-2.636065e+01	-3.733091e+02
9.600000e-07	-4.841374e-06	-1.394895e-09	-2.612083e+01	-3.716953e+02
9.700000e-07	-4.796614e-06	-1.387577e-09	-2.587934e+01	-3.700475e+02
9.800000e-07	-4.751528e-06	-1.379971e-09	-2.563608e+01	-3.683664e+02
9.900000e-07	-4.706068e-06	-1.372772e-09	-2.539081e+01	-3.666525e+02
1.000000e-06	-4.660296e-06	-1.366009e-09	-2.514386e+01	-3.649067e+02
1.010000e-06	-4.614187e-06	-1.359198e-09	-2.489508e+01	-3.631296e+02
1.020000e-06	-4.567600e-06	-1.352375e-09	-2.464373e+01	-3.613222e+02
1.030000e-06	-4.520693e-06	-1.346201e-09	-2.439065e+01	-3.594853e+02
1.040000e-06	-4.473554e-06	-1.341197e-09	-2.413632e+01	-3.576198e+02
1.050000e-06	-4.426177e-06	-1.335940e-09	-2.388071e+01	-3.557266e+02
1.060000e-06	-4.378504e-06	-1.328670e-09	-2.362350e+01	-3.538066e+02
1.070000e-06	-4.330483e-06	-1.320592e-09	-2.336440e+01	-3.518607e+02
1.080000e-06	-4.282200e-06	-1.313692e-09	-2.310390e+01	-3.498896e+02
1.090000e-06	-4.233600e-06	-1.307248e-09	-2.284169e+01	-3.478942e+02
1.100000e-06	-4.184534e-06	-1.300154e-09	-2.257696e+01	-3.458751e+02
1.110000e-06	-4.135094e-06	-1.292302e-09	-2.231022e+01	-3.438329e+02
1.120000e-06	-4.085267e-06	-1.283233e-09	-2.204138e+01	-3.417682e+02
1.130000e-06	-4.034999e-06	-1.274005e-09	-2.177017e+01	-3.396814e+02
1.140000e-06	-3.984388e-06	-1.266245e-09	-2.149711e+01	-3.375727e+02
1.150000e-06	-3.933382e-06	-1.259422e-09	-2.122192e+01	-3.354425e+02
1.160000e-06	-3.881954e-06	-1.252212e-09	-2.094444e+01	-3.332909e+02
1.170000e-06	-3.830201e-06	-1.243910e-09	-2.066522e+01	-3.311178e+02
1.180000e-06	-3.778156e-06	-1.234360e-09	-2.038442e+01	-3.289232e+02
1.190000e-06	-3.725741e-06	-1.223818e-09	-2.010162e+01	-3.267067e+02
1.200000e-06	-3.672924e-06	-1.213992e-09	-1.981665e+01	-3.244683e+02
1.210000e-06	-3.619928e-06	-1.205936e-09	-1.953072e+01	-3.222073e+02
1.220000e-06	-3.566870e-06	-1.199295e-09	-1.924446e+01	-3.199235e+02
1.230000e-06	-3.513640e-06	-1.191913e-09	-1.895727e+01	-3.176161e+02
1.240000e-06	-3.460200e-06	-1.182938e-09	-1.866894e+01	-3.152847e+02
1.250000e-06	-3.406416e-06	-1.173642e-09	-1.837876e+01	-3.129285e+02
1.260000e-06	-3.352245e-06	-1.163154e-09	-1.808648e+01	-3.105469e+02
1.270000e-06	-3.297784e-06	-1.152102e-09	-1.779265e+01	-3.081392e+02
1.280000e-06	-3.243141e-06	-1.142190e-09	-1.749783e+01	-3.057046e+02
1.290000e-06	-3.188311e-06	-1.133186e-09	-1.720201e+01	-3.032424e+02
1.300000e-06	-3.133358e-06	-1.123453e-09	-1.690552e+01	-3.007518e+02
1.310000e-06	-3.078279e-06	-1.112516e-09	-1.660835e+01	-2.982323e+02
1.320000e-06	-3.022997e-06	-1.100842e-09	-1.631008e+01	-2.956830e+02
1.330000e-06	-2.967560e-06	-1.088424e-09	-1.601098e+01	-2.931034e+02
1.340000e-06	-2.911946e-06	-1.076019e-09	-1.571092e+01	-2.904929e+02
1.350000e-06	-2.856177e-06	-1.065475e-09	-1.541003e+01	-2.878509e+02
1.360000e-06	-2.800256e-06	-1.056561e-09	-1.510832e+01	-2.851769e+02
1.370000e-06	-2.744222e-06	-1.047444e-09	-1.480600e+01	-2.824703e+02
1.380000e-06	-2.688110e-06	-1.037951e-09	-1.450325e+01	-2.797308e+02
1.390000e-06	-2.631837e-06	-1.027548e-09	-1.419964e+01	-2.769579e+02
1.400000e-06	-2.575176e-06	-1.015940e-09	-1.389393e+01	-2.741511e+02
1.410000e-06	-2.518200e-06	-1.004832e-09	-1.358653e+01	-2.713100e+02
1.420000e-06	-2.461053e-06	-9.945161e-10	-1.327821e+01	-2.684343e+02
1.430000e-06	-2.403630e-06	-9.839271e-10	-1.296839e+01	-2.655233e+02
1.440000e-06	-2.345966e-06	-9.727962e-10	-1.265727e+01	-2.625765e+02
1.450000e-06	-2.288084e-06	-9.615409e-10	-1.234498e+01	-2.595934e+02
1.460000e-06	-2.229846e-06	-9.505156e-10	-1.203077e+01	-2.565732e+02
1.470000e-06	-2.171321e-06	-9.391772e-10	-1.171500e+01	-2.535150e+02
1.480000e-06	-2.112669e-06	-9.278809e-10	-1.139856e+01	-2.504180e+02
1.490000e-06	-2.053808e-06	-9.168239e-10	-1.108098e+01	-2.472809e+02
1.500000e-06	-1.994673e-06	-9.051103e-10	-1.076193e+01	-2.441024e+02
1.510000e-06	-1.935351e-06	-8.928150e-10	-1.044186e+01	-2.408811e+02
1.520000e-06	-1.875888e-06	-8.800443e-10	-1.012104e+01	-2.376152e+02
1.530000e-06	-1.816336e-06	-8.672244e-10	-9.799743e+00	-2.343026e+02
1.540000e-06	-1.756706e-06	-8.544660e-10	-9.478020e+00	-2.309413e+02
1.550000e-06	-1.696996e-06	-8.419372e-10	-9.155861e+00	-2.275288e+02
1.560000e-06	-1.637257e-06	-8.308339e-10	-8.833550e+00	-2.240623e+02
1.570000e-06	-1.577505e-06	-8.196637e-10	-8.511167e+00	-2.205390e+02
1.580000e-06	-1.517750e-06	-8.071201e-10	-8.188769e+00	-2.169557e+02
1.590000e-06	-1.457799e-06	-7.937171e-10	-7.865316e+00	-2.133090e+02
1.600000e-06	-1.397741e-06	-7.796114e-10	-7.541279e+00	-2.095954e+02
1.610000e-06	-1.337649e-06	-7.657157e-10	-7.217066e+00	-2.058110e+02
1.620000e-06	-1.277368e-06	-7.530798e-10	-6.891829e+00	-2.019520e+02
1.630000e-06	-1.217016e-06	-7.407627e-10	-6.566211e+00	-1.980145e+02
1.640000e-06	-1.156644e-06	-7.269771e-10	-6.240483e+00	-1.939942e+02
1.650000e-06	-1.096199e-06	-7.122520e-10	-5.914359e+00	-1.898872e+02
1.660000e-06	-1.035722e-06	-6.971714e-10	-5.588069e+00	-1.856894e+02
1.670000e-06	-9.752112e-07	-6.801799e-10	-5.261591e+00	-1.813968e+02
1.680000e-06	-9.146195e-07	-6.625218e-10	-4.934679e+00	-1.770054e+02
1.690000e-06	-8.540277e-07	-6.466219e-10	-4.607766e+00	-1.725118e+02
1.700000e-06	-7.934229e-07	-6.314399e-10	-4.280782e+00	-1.679124e+02
1.710000e-06	-7.327543e-07	-6.158026e-10	-3.953455e+00	-1.632041e+02
1.720000e-06	-6.720155e-07	-5.998149e-10	-3.625749e+00	-1.583843e+02
1.730000e-06	-6.111821e-07	-5.833291e-10	-3.297532e+00	-1.534505e+02
1.740000e-06	-5.502444e-07	-5.655745e-10	-2.968753e+00	-1.484010e+02
1.750000e-06	-4.891678e-07	-5.463687e-10	-2.639224e+00	-1.432345e+02
1.760000e-06	-4.281107e-07	-5.262538e-10	-2.309800e+00	-1.379502e+02
1.770000e-06	-3.671325e-07	-5.047630e-10	-1.980803e+00	-1.325480e+02
1.780000e-06	-3.061336e-07	-4.825366e-10	-1.651693e+00	-1.270285e+02
1.790000e-06	-2.451418e-07	-4.612367e-10	-1.322622e+00	-1.213929e+02
1.800000e-06	-1.841735e-07	-4.407452e-10	-9.936775e-01	-1.156431e+02
1.810000e-06	-1.231235e-07	-4.195925e-10	-6.642925e-01	-1.097818e+02
1.820000e-06	-6.200843e-08	-3.967394e-10	-3.345562e-01	-1.038122e+02
1.830000e-06	-8.547087e-10	-3.729118e-10	-4.611440e-03	-9.773863e+01
1.840000e-06	6.025723e-08	-3.488146e-10	3.251079e-01	-9.156573e+01
1.850000e-06	1.213404e-07	-3.250157e-10	6.546723e-01	-8.529900e+01
1.860000e-06	1.824560e-07	-3.015638e-10	9.844113e-01	-7.894457e+01
1.870000e-06	2.435789e-07	-2.761053e-10	1.314190e+00	-7.250917e+01
1.880000e-06	3.047607e-07	-2.486998e-10	1.644286e+00	-6.600010e+01
1.890000e-06	3.658867e-07	-2.221953e-10	1.974082e+00	-5.942517e+01
1.900000e-06	4.269450e-07	-1.969234e-10	2.303511e+00	-5.279263e+01
1.910000e-06	4.878898e-07	-1.725592e-10	2.632329e+00	-4.611111e+01
1.920000e-06	5.487940e-07	-1.483137e-10	2.960928e+00	-3.938954e+01
1.930000e-06	6.097716e-07	-1.219596e-10	3.289922e+00	-3.263709e+01
1.940000e-06	6.706653e-07	-9.325909e-11	3.618464e+00	-2.586305e+01
1.950000e-06	7.314285e-07	-6.387460e-11	3.946302e+00	-1.907679e+01
1.960000e-06	7.921508e-07	-3.519541e-11	4.273919e+00	-1.228763e+01
1.970000e-06	8.528629e-07	-7.502211e-12	4.601481e+00	-5.504812e+00
1.980000e-06	9.135163e-07	2.000867e-11	4.928726e+00	1.262643e+00
1.990000e-06	9.741324e-07	4.768352e-11	5.255771e+00	8.005971e+00
2.000000e-06	1.034679e-06	7.451326e-11	5.582442e+00	1.471676e+01
2.010000e-06	1.095096e-06	1.000292e-10	5.908410e+00	2.138703e+01
2.020000e-06	1.155418e-06	1.254745e-10	6.233868e+00	2.800926e+01
2.030000e-06	1.215706e-06	1.513689e-10	6.559138e+00	3.457650e+01
2.040000e-06	1.275982e-06	1.760826e-10	6.884352e+00	4.108237e+01
2.050000e-06	1.336156e-06	1.994709e-10	7.209007e+00	4.752116e+01
2.060000e-06	1.396216e-06	2.226534e-10	7.533053e+00	5.388779e+01
2.070000e-06	1.456204e-06	2.464572e-10	7.856710e+00	6.017790e+01
2.080000e-06	1.516044e-06	2.710587e-10	8.179565e+00	6.638784e+01
2.090000e-06	1.575772e-06	2.949366e-10	8.501818e+00	7.251465e+01
2.100000e-06	1.635444e-06	3.180830e-10	8.823768e+00	7.855610e+01
2.110000e-06	1.694982e-06	3.395273e-10	9.144996e+00	8.451064e+01
2.120000e-06	1.754446e-06	3.598308e-10	9.465822e+00	9.037740e+01
2.130000e-06	1.813894e-06	3.820707e-10	9.786567e+00	9.615615e+01
2.140000e-06	1.873232e-06	4.047357e-10	1.010671e+01	1.018472e+02
2.150000e-06	1.932501e-06	4.255031e-10	1.042649e+01	1.074516e+02
2.160000e-06	1.991656e-06	4.447385e-10	1.074565e+01	1.129707e+02
2.170000e-06	2.050665e-06	4.635290e-10	1.106402e+01	1.184063e+02
2.180000e-06	2.109549e-06	4.827025e-10	1.138172e+01	1.237607e+02
2.190000e-06	2.168270e-06	5.024402e-10	1.169854e+01	1.290365e+02
2.200000e-06	2.226810e-06	5.215645e-10	1.201439e+01	1.342364e+02
2.210000e-06	2.285031e-06	5.387103e-10	1.232851e+01	1.393636e+02
2.220000e-06	2.342920e-06	5.557847e-10	1.264084e+01	1.444210e+02
2.230000e-06	2.400471e-06	5.744568e-10	1.295134e+01	1.494119e+02
2.240000e-06	2.457766e-06	5.933624e-10	1.326047e+01	1.543395e+02
2.250000e-06	2.514749e-06	6.115904e-10	1.356792e+01	1.592067e+02
2.260000e-06	2.571338e-06	6.289004e-10	1.387323e+01	1.640167e+02
2.270000e-06	2.627733e-06	6.452648e-10	1.417750e+01	1.687721e+02
2.280000e-06	2.684092e-06	6.616990e-10	1.448158e+01	1.734756e+02
2.290000e-06	2.740271e-06	6.784509e-10	1.478468e+01	1.781295e+02
2.300000e-06	2.796162e-06	6.950344e-10	1.508623e+01	1.827358e+02
2.310000e-06	2.851843e-06	7.108284e-10	1.538665e+01	1.872962e+02
2.320000e-06	2.907367e-06	7.257583e-10	1.568622e+01	1.918121e+02
2.330000e-06	2.962815e-06	7.411517e-10	1.598538e+01	1.962846e+02
2.340000e-06	3.018135e-06	7.575104e-10	1.628385e+01	2.007144e+02
2.350000e-06	3.073306e-06	7.738580e-10	1.658152e+01	2.051018e+02
2.360000e-06	3.128299e-06	7.892174e-10	1.687822e+01	2.094469e+02
2.370000e-06	3.183046e-06	8.039740e-10	1.717360e+01	2.137494e+02
2.380000e-06	3.237507e-06	8.192073e-10	1.746743e+01	2.180087e+02
2.390000e-06	3.291751e-06	8.351412e-10	1.776010e+01	2.222242e+02
2.400000e-06	3.345882e-06	8.504472e-10	1.805215e+01	2.263946e+02
2.410000e-06	3.399758e-06	8.646948e-10	1.834283e+01	2.305187e+02
2.420000e-06	3.453308e-06	8.793251e-10	1.863175e+01	2.345951e+02
2.430000e-06	3.506751e-06	8.944118e-10	1.892009e+01	2.386223e+02
2.440000e-06	3.560007e-06	9.103500e-10	1.920743e+01	2.425987e+02
2.450000e-06	3.612890e-06	9.265010e-10	1.949275e+01	2.465225e+02
2.460000e-06	3.665502e-06	9.407554e-10	1.977661e+01	2.503921e+02
2.470000e-06	3.717777e-06	9.543398e-10	2.005865e+01	2.542057e+02
2.480000e-06	3.769770e-06	9.687984e-10	2.033917e+01	2.579619e+02
2.490000e-06	3.821636e-06	9.834201e-10	2.061901e+01	2.616590e+02
2.500000e-06	3.873163e-06	9.971437e-10	2.089701e+01	2.652958e+02
2.510000e-06	3.924323e-06	1.010370e-09	2.117304e+01	2.688709e+02
2.520000e-06	3.975129e-06	1.023520e-09	2.144715e+01	2.723832e+02
2.530000e-06	4.025517e-06	1.035858e-09	2.171901e+01	2.758319e+02
2.540000e-06	4.075390e-06	1.048336e-09	2.198809e+01	2.792163e+02
2.550000e-06	4.124781e-06	1.061751e-09	2.225458e+01	2.825359e+02
2.560000e-06	4.173940e-06	1.075179e-09	2.251980e+01	2.857905e+02
2.570000e-06	4.222707e-06	1.088196e-09	2.278292e+01	2.889799e+02
2.580000e-06	4.270929e-06	1.100197e-09	2.304309e+01	2.921043e+02
2.590000e-06	4.318772e-06	1.111300e-09	2.330122e+01	2.951641e+02
2.600000e-06	4.366395e-06	1.122233e-09	2.355816e+01	2.981599e+02
2.610000e-06	4.413804e-06	1.132109e-09	2.381395e+01	3.010923e+02
2.620000e-06	4.460886e-06	1.141428e-09	2.406797e+01	3.039623e+02
2.630000e-06	4.507711e-06	1.152453e-09	2.432061e+01	3.067710e+02
2.640000e-06	4.554325e-06	1.165174e-09	2.457211e+01	3.095195e+02
2.650000e-06	4.600625e-06	1.177911e-09	2.482192e+01	3.122091e+02
2.660000e-06	4.646547e-06	1.189176e-09	2.506968e+01	3.148413e+02
2.670000e-06	4.692111e-06	1.198217e-09	2.531551e+01	3.174175e+02
2.680000e-06	4.737317e-06	1.205835e-09	2.555941e+01	3.199393e+02
2.690000e-06	4.782191e-06	1.214091e-09	2.580152e+01	3.224082e+02
2.700000e-06	4.826749e-06	1.222869e-09	2.604193e+01	3.248259e+02
2.710000e-06	4.870943e-06	1.231246e-09	2.628037e+01	3.271938e+02
2.720000e-06	4.914873e-06	1.240653e-09	2.651739e+01	3.295138e+02
2.730000e-06	4.958644e-06	1.250927e-09	2.675354e+01	3.317872e+02
2.740000e-06	5.002239e-06	1.259968e-09	2.698875e+01	3.340157e+02
2.750000e-06	5.045560e-06	1.267674e-09	2.722248e+01	3.362007e+02
2.760000e-06	5.088508e-06	1.275008e-09	2.745421e+01	3.383438e+02
2.770000e-06	5.131063e-06	1.282699e-09	2.768380e+01	3.404463e+02
2.780000e-06	5.173233e-06	1.290779e-09	2.791132e+01	3.425096e+02
2.790000e-06	5.214760e-06	1.298788e-09	2.813537e+01	3.445351e+02
2.800000e-06	5.255489e-06	1.306403e-09	2.835512e+01	3.465239e+02
2.810000e-06	5.295678e-06	1.313163e-09	2.857196e+01	3.484772e+02
2.820000e-06	5.335527e-06	1.319305e-09	2.878696e+01	3.503964e+02
2.830000e-06	5.375133e-06	1.325728e-09	2.900064e+01	3.522823e+02
2.840000e-06	5.414483e-06	1.332992e-09	2.921295e+01	3.541362e+02
2.850000e-06	5.453564e-06	1.340308e-09	2.942381e+01	3.559591e+02
2.860000e-06	5.492315e-06	1.347149e-09	2.963288e+01	3.577519e+02
2.870000e-06	5.530688e-06	1.354174e-09	2.983991e+01	3.595157e+02
2.880000e-06	5.568623e-06	1.360988e-09	3.004459e+01	3.612513e+02
2.890000e-06	5.606037e-06	1.367339e-09	3.024645e+01	3.629598e+02
2.900000e-06	5.643038e-06	1.374463e-09	3.044608e+01	3.646420e+02
