# Temperatura_=_16.3
# Concentracion g/m^3_=_7400.0
# C_Vs_to_Am_M_A/Vsm_=_254322799225.57578
# pendiente_HvsI_1/m_=_3716.3
# ordenada_HvsI_A/m_=_1297.0
# frecuencia_Hz_=_136115.20383638638

Tiempo_(s)	Campo_(V.s)	Magnetizacion_(V.s)	Campo_(kA/m)	Magnetizacion_(A/m)
0.000000e+00	-7.075433e-06	-1.747799e-09	-3.842395e+01	-4.368105e+02
1.000000e-08	-7.075412e-06	-1.747532e-09	-3.842384e+01	-4.369295e+02
2.000000e-08	-7.075063e-06	-1.747165e-09	-3.842194e+01	-4.370325e+02
3.000000e-08	-7.074272e-06	-1.745679e-09	-3.841765e+01	-4.371191e+02
4.000000e-08	-7.072810e-06	-1.744265e-09	-3.840971e+01	-4.371888e+02
5.000000e-08	-7.070472e-06	-1.743936e-09	-3.839701e+01	-4.372409e+02
6.000000e-08	-7.067411e-06	-1.746017e-09	-3.838039e+01	-4.372748e+02
7.000000e-08	-7.063871e-06	-1.753354e-09	-3.836116e+01	-4.372900e+02
8.000000e-08	-7.059993e-06	-1.748852e-09	-3.834010e+01	-4.372859e+02
9.000000e-08	-7.055495e-06	-1.711619e-09	-3.831568e+01	-4.372619e+02
1.000000e-07	-7.050171e-06	-1.690288e-09	-3.828677e+01	-4.372175e+02
1.100000e-07	-7.044284e-06	-1.750903e-09	-3.825479e+01	-4.371524e+02
1.200000e-07	-7.038191e-06	-1.799655e-09	-3.822170e+01	-4.370661e+02
1.300000e-07	-7.031865e-06	-1.735947e-09	-3.818735e+01	-4.369584e+02
1.400000e-07	-7.024871e-06	-1.670034e-09	-3.814937e+01	-4.368293e+02
1.500000e-07	-7.017239e-06	-1.736842e-09	-3.810793e+01	-4.366786e+02
1.600000e-07	-7.009471e-06	-1.801283e-09	-3.806574e+01	-4.365066e+02
1.700000e-07	-7.001492e-06	-1.702391e-09	-3.802241e+01	-4.363134e+02
1.800000e-07	-6.992958e-06	-1.625534e-09	-3.797607e+01	-4.360995e+02
1.900000e-07	-6.983617e-06	-1.731994e-09	-3.792534e+01	-4.358653e+02
2.000000e-07	-6.973600e-06	-1.815338e-09	-3.787094e+01	-4.356114e+02
2.100000e-07	-6.963100e-06	-1.709008e-09	-3.781391e+01	-4.353385e+02
2.200000e-07	-6.951951e-06	-1.631684e-09	-3.775337e+01	-4.350473e+02
2.300000e-07	-6.940124e-06	-1.716341e-09	-3.768914e+01	-4.347388e+02
2.400000e-07	-6.927835e-06	-1.755029e-09	-3.762241e+01	-4.344138e+02
2.500000e-07	-6.915161e-06	-1.675053e-09	-3.755358e+01	-4.340732e+02
2.600000e-07	-6.901818e-06	-1.668996e-09	-3.748112e+01	-4.337180e+02
2.700000e-07	-6.887823e-06	-1.736020e-09	-3.740512e+01	-4.333491e+02
2.800000e-07	-6.873154e-06	-1.713818e-09	-3.732545e+01	-4.329674e+02
2.900000e-07	-6.857716e-06	-1.669081e-09	-3.724162e+01	-4.325736e+02
3.000000e-07	-6.841604e-06	-1.701826e-09	-3.715412e+01	-4.321687e+02
3.100000e-07	-6.824999e-06	-1.699690e-09	-3.706394e+01	-4.317531e+02
3.200000e-07	-6.807886e-06	-1.643618e-09	-3.697101e+01	-4.313276e+02
3.300000e-07	-6.790403e-06	-1.681326e-09	-3.687607e+01	-4.308925e+02
3.400000e-07	-6.772591e-06	-1.741714e-09	-3.677933e+01	-4.304481e+02
3.500000e-07	-6.754361e-06	-1.677689e-09	-3.668034e+01	-4.299946e+02
3.600000e-07	-6.735549e-06	-1.623260e-09	-3.657817e+01	-4.295320e+02
3.700000e-07	-6.716101e-06	-1.686758e-09	-3.647256e+01	-4.290603e+02
3.800000e-07	-6.696367e-06	-1.706404e-09	-3.636539e+01	-4.285791e+02
3.900000e-07	-6.676327e-06	-1.641749e-09	-3.625656e+01	-4.280880e+02
4.000000e-07	-6.655893e-06	-1.646856e-09	-3.614559e+01	-4.275866e+02
4.100000e-07	-6.635138e-06	-1.691945e-09	-3.603288e+01	-4.270742e+02
4.200000e-07	-6.613836e-06	-1.665213e-09	-3.591720e+01	-4.265501e+02
4.300000e-07	-6.592007e-06	-1.641112e-09	-3.579865e+01	-4.260135e+02
4.400000e-07	-6.569827e-06	-1.660906e-09	-3.567820e+01	-4.254635e+02
4.500000e-07	-6.547240e-06	-1.645809e-09	-3.555554e+01	-4.248993e+02
4.600000e-07	-6.524098e-06	-1.626478e-09	-3.542986e+01	-4.243199e+02
4.700000e-07	-6.500423e-06	-1.657431e-09	-3.530129e+01	-4.237244e+02
4.800000e-07	-6.476528e-06	-1.662223e-09	-3.517153e+01	-4.231120e+02
4.900000e-07	-6.452313e-06	-1.623975e-09	-3.504003e+01	-4.224818e+02
5.000000e-07	-6.427436e-06	-1.622865e-09	-3.490493e+01	-4.218331e+02
5.100000e-07	-6.401730e-06	-1.639713e-09	-3.476533e+01	-4.211653e+02
5.200000e-07	-6.375196e-06	-1.624186e-09	-3.462124e+01	-4.204777e+02
5.300000e-07	-6.348034e-06	-1.616406e-09	-3.447373e+01	-4.197699e+02
5.400000e-07	-6.320507e-06	-1.626373e-09	-3.432424e+01	-4.190417e+02
5.500000e-07	-6.292736e-06	-1.617738e-09	-3.417343e+01	-4.182928e+02
5.600000e-07	-6.264642e-06	-1.608155e-09	-3.402086e+01	-4.175232e+02
5.700000e-07	-6.236168e-06	-1.611801e-09	-3.386623e+01	-4.167330e+02
5.800000e-07	-6.207254e-06	-1.603128e-09	-3.370921e+01	-4.159223e+02
5.900000e-07	-6.177862e-06	-1.591674e-09	-3.354959e+01	-4.150915e+02
6.000000e-07	-6.148137e-06	-1.596201e-09	-3.338817e+01	-4.142411e+02
6.100000e-07	-6.118070e-06	-1.596122e-09	-3.322488e+01	-4.133714e+02
6.200000e-07	-6.087523e-06	-1.586642e-09	-3.305899e+01	-4.124832e+02
6.300000e-07	-6.056491e-06	-1.581314e-09	-3.289047e+01	-4.115771e+02
6.400000e-07	-6.025031e-06	-1.573559e-09	-3.271962e+01	-4.106536e+02
6.500000e-07	-5.993303e-06	-1.564129e-09	-3.254732e+01	-4.097136e+02
6.600000e-07	-5.961387e-06	-1.563994e-09	-3.237400e+01	-4.087576e+02
6.700000e-07	-5.929067e-06	-1.562938e-09	-3.219848e+01	-4.077862e+02
6.800000e-07	-5.896160e-06	-1.555473e-09	-3.201978e+01	-4.068000e+02
6.900000e-07	-5.862551e-06	-1.549952e-09	-3.183726e+01	-4.057994e+02
7.000000e-07	-5.828282e-06	-1.544043e-09	-3.165116e+01	-4.047848e+02
7.100000e-07	-5.793339e-06	-1.536115e-09	-3.146139e+01	-4.037563e+02
7.200000e-07	-5.757855e-06	-1.531929e-09	-3.126869e+01	-4.027140e+02
7.300000e-07	-5.722112e-06	-1.527311e-09	-3.107459e+01	-4.016579e+02
7.400000e-07	-5.686176e-06	-1.520381e-09	-3.087943e+01	-4.005876e+02
7.500000e-07	-5.650034e-06	-1.517948e-09	-3.068316e+01	-3.995027e+02
7.600000e-07	-5.613517e-06	-1.517211e-09	-3.048485e+01	-3.984028e+02
7.700000e-07	-5.576548e-06	-1.509226e-09	-3.028408e+01	-3.972869e+02
7.800000e-07	-5.539146e-06	-1.498561e-09	-3.008097e+01	-3.961542e+02
7.900000e-07	-5.501301e-06	-1.492379e-09	-2.987545e+01	-3.950037e+02
8.000000e-07	-5.462942e-06	-1.488716e-09	-2.966714e+01	-3.938342e+02
8.100000e-07	-5.424009e-06	-1.485635e-09	-2.945571e+01	-3.926444e+02
8.200000e-07	-5.384714e-06	-1.481304e-09	-2.924231e+01	-3.914330e+02
8.300000e-07	-5.345309e-06	-1.473612e-09	-2.902832e+01	-3.901985e+02
8.400000e-07	-5.305726e-06	-1.465883e-09	-2.881336e+01	-3.889396e+02
8.500000e-07	-5.265901e-06	-1.460884e-09	-2.859708e+01	-3.876548e+02
8.600000e-07	-5.225772e-06	-1.456443e-09	-2.837916e+01	-3.863426e+02
8.700000e-07	-5.185287e-06	-1.450482e-09	-2.815930e+01	-3.850017e+02
8.800000e-07	-5.144403e-06	-1.443236e-09	-2.793727e+01	-3.836309e+02
8.900000e-07	-5.102882e-06	-1.436877e-09	-2.771179e+01	-3.822289e+02
9.000000e-07	-5.060781e-06	-1.430909e-09	-2.748315e+01	-3.807948e+02
9.100000e-07	-5.018057e-06	-1.424064e-09	-2.725114e+01	-3.793277e+02
9.200000e-07	-4.974752e-06	-1.415315e-09	-2.701597e+01	-3.778268e+02
9.300000e-07	-4.931201e-06	-1.407363e-09	-2.677945e+01	-3.762916e+02
9.400000e-07	-4.887401e-06	-1.402823e-09	-2.654159e+01	-3.747219e+02
9.500000e-07	-4.843306e-06	-1.399054e-09	-2.630213e+01	-3.731174e+02
9.600000e-07	-4.798978e-06	-1.393199e-09	-2.606140e+01	-3.714783e+02
9.700000e-07	-4.754447e-06	-1.385699e-09	-2.581957e+01	-3.698049e+02
9.800000e-07	-4.709601e-06	-1.378247e-09	-2.557603e+01	-3.680975e+02
9.900000e-07	-4.664374e-06	-1.371635e-09	-2.533042e+01	-3.663569e+02
1.000000e-06	-4.618820e-06	-1.364644e-09	-2.508304e+01	-3.645839e+02
1.010000e-06	-4.572860e-06	-1.356921e-09	-2.483344e+01	-3.627793e+02
1.020000e-06	-4.526412e-06	-1.349944e-09	-2.458120e+01	-3.609442e+02
1.030000e-06	-4.479584e-06	-1.344029e-09	-2.432690e+01	-3.590798e+02
1.040000e-06	-4.432454e-06	-1.338782e-09	-2.407095e+01	-3.571872e+02
1.050000e-06	-4.385142e-06	-1.333527e-09	-2.381402e+01	-3.552677e+02
1.060000e-06	-4.337653e-06	-1.326661e-09	-2.355613e+01	-3.533225e+02
1.070000e-06	-4.289977e-06	-1.318337e-09	-2.329722e+01	-3.513526e+02
1.080000e-06	-4.242106e-06	-1.309607e-09	-2.303724e+01	-3.493594e+02
1.090000e-06	-4.193973e-06	-1.300948e-09	-2.277585e+01	-3.473437e+02
1.100000e-06	-4.145528e-06	-1.292751e-09	-2.251277e+01	-3.453064e+02
1.110000e-06	-4.096747e-06	-1.283799e-09	-2.224785e+01	-3.432483e+02
1.120000e-06	-4.047493e-06	-1.274371e-09	-2.198038e+01	-3.411700e+02
1.130000e-06	-3.997509e-06	-1.266297e-09	-2.170893e+01	-3.390719e+02
1.140000e-06	-3.947062e-06	-1.258964e-09	-2.143497e+01	-3.369542e+02
1.150000e-06	-3.896344e-06	-1.250857e-09	-2.115954e+01	-3.348169e+02
1.160000e-06	-3.845256e-06	-1.242828e-09	-2.088210e+01	-3.326597e+02
1.170000e-06	-3.793893e-06	-1.234544e-09	-2.060317e+01	-3.304824e+02
1.180000e-06	-3.742208e-06	-1.225428e-09	-2.032249e+01	-3.282844e+02
1.190000e-06	-3.690184e-06	-1.216008e-09	-2.003997e+01	-3.260648e+02
1.200000e-06	-3.637980e-06	-1.207132e-09	-1.975647e+01	-3.238228e+02
1.210000e-06	-3.585490e-06	-1.199148e-09	-1.947142e+01	-3.215574e+02
1.220000e-06	-3.532595e-06	-1.191456e-09	-1.918416e+01	-3.192672e+02
1.230000e-06	-3.479400e-06	-1.182682e-09	-1.889528e+01	-3.169512e+02
1.240000e-06	-3.425959e-06	-1.172944e-09	-1.860506e+01	-3.146079e+02
1.250000e-06	-3.372336e-06	-1.163350e-09	-1.831386e+01	-3.122360e+02
1.260000e-06	-3.318559e-06	-1.153249e-09	-1.802182e+01	-3.098342e+02
1.270000e-06	-3.264554e-06	-1.143362e-09	-1.772853e+01	-3.074011e+02
1.280000e-06	-3.210293e-06	-1.134854e-09	-1.743387e+01	-3.049355e+02
1.290000e-06	-3.155817e-06	-1.125489e-09	-1.713803e+01	-3.024361e+02
1.300000e-06	-3.101218e-06	-1.114460e-09	-1.684152e+01	-2.999020e+02
1.310000e-06	-3.046385e-06	-1.103639e-09	-1.654374e+01	-2.973322e+02
1.320000e-06	-2.991234e-06	-1.092684e-09	-1.624424e+01	-2.947259e+02
1.330000e-06	-2.935864e-06	-1.081535e-09	-1.594355e+01	-2.920825e+02
1.340000e-06	-2.880265e-06	-1.071047e-09	-1.564161e+01	-2.894016e+02
1.350000e-06	-2.824504e-06	-1.060620e-09	-1.533880e+01	-2.866827e+02
1.360000e-06	-2.768701e-06	-1.049941e-09	-1.503575e+01	-2.839260e+02
1.370000e-06	-2.712787e-06	-1.039346e-09	-1.473210e+01	-2.811313e+02
1.380000e-06	-2.656734e-06	-1.029169e-09	-1.442770e+01	-2.782988e+02
1.390000e-06	-2.600656e-06	-1.018799e-09	-1.412316e+01	-2.754290e+02
1.400000e-06	-2.544556e-06	-1.007613e-09	-1.381850e+01	-2.725221e+02
1.410000e-06	-2.488132e-06	-9.966020e-10	-1.351209e+01	-2.695788e+02
1.420000e-06	-2.431385e-06	-9.853850e-10	-1.320391e+01	-2.665994e+02
1.430000e-06	-2.374553e-06	-9.737125e-10	-1.289528e+01	-2.635845e+02
1.440000e-06	-2.317484e-06	-9.628827e-10	-1.258536e+01	-2.605346e+02
1.450000e-06	-2.260025e-06	-9.523012e-10	-1.227333e+01	-2.574501e+02
1.460000e-06	-2.202255e-06	-9.403495e-10	-1.195960e+01	-2.543313e+02
1.470000e-06	-2.144196e-06	-9.280488e-10	-1.164430e+01	-2.511783e+02
1.480000e-06	-2.085833e-06	-9.162936e-10	-1.132736e+01	-2.479911e+02
1.490000e-06	-2.027341e-06	-9.045641e-10	-1.100971e+01	-2.447693e+02
1.500000e-06	-1.968741e-06	-8.921668e-10	-1.069148e+01	-2.415123e+02
1.510000e-06	-1.909832e-06	-8.789981e-10	-1.037157e+01	-2.382194e+02
1.520000e-06	-1.850673e-06	-8.660373e-10	-1.005029e+01	-2.348892e+02
1.530000e-06	-1.791368e-06	-8.539767e-10	-9.728228e+00	-2.315204e+02
1.540000e-06	-1.731904e-06	-8.424310e-10	-9.405306e+00	-2.281110e+02
1.550000e-06	-1.672334e-06	-8.302424e-10	-9.081803e+00	-2.246588e+02
1.560000e-06	-1.612751e-06	-8.172231e-10	-8.758231e+00	-2.211612e+02
1.570000e-06	-1.553174e-06	-8.043711e-10	-8.434691e+00	-2.176154e+02
1.580000e-06	-1.493516e-06	-7.921936e-10	-8.110711e+00	-2.140180e+02
1.590000e-06	-1.433754e-06	-7.800941e-10	-7.786166e+00	-2.103656e+02
1.600000e-06	-1.373959e-06	-7.668863e-10	-7.461441e+00	-2.066544e+02
1.610000e-06	-1.314124e-06	-7.529249e-10	-7.136504e+00	-2.028804e+02
1.620000e-06	-1.254211e-06	-7.397949e-10	-6.811139e+00	-1.990393e+02
1.630000e-06	-1.194239e-06	-7.266555e-10	-6.485451e+00	-1.951269e+02
1.640000e-06	-1.134183e-06	-7.120579e-10	-6.159312e+00	-1.911387e+02
1.650000e-06	-1.074030e-06	-6.966850e-10	-5.832643e+00	-1.870703e+02
1.660000e-06	-1.013808e-06	-6.808995e-10	-5.505600e+00	-1.829175e+02
1.670000e-06	-9.535842e-07	-6.646369e-10	-5.178549e+00	-1.786759e+02
1.680000e-06	-8.933501e-07	-6.489472e-10	-4.851441e+00	-1.743416e+02
1.690000e-06	-8.329999e-07	-6.342214e-10	-4.523702e+00	-1.699107e+02
1.700000e-06	-7.724959e-07	-6.191742e-10	-4.195128e+00	-1.653798e+02
1.710000e-06	-7.120002e-07	-6.033773e-10	-3.866599e+00	-1.607458e+02
1.720000e-06	-6.515860e-07	-5.871390e-10	-3.538513e+00	-1.560060e+02
1.730000e-06	-5.911336e-07	-5.700202e-10	-3.210219e+00	-1.511584e+02
1.740000e-06	-5.306201e-07	-5.524628e-10	-2.881593e+00	-1.462012e+02
1.750000e-06	-4.700005e-07	-5.344095e-10	-2.552392e+00	-1.411335e+02
1.760000e-06	-4.093622e-07	-5.153867e-10	-2.223088e+00	-1.359549e+02
1.770000e-06	-3.487304e-07	-4.951709e-10	-1.893820e+00	-1.306657e+02
1.780000e-06	-2.880999e-07	-4.745569e-10	-1.564560e+00	-1.252666e+02
1.790000e-06	-2.275266e-07	-4.543087e-10	-1.235609e+00	-1.197595e+02
1.800000e-06	-1.669162e-07	-4.341648e-10	-9.064576e-01	-1.141465e+02
1.810000e-06	-1.062630e-07	-4.137072e-10	-5.770737e-01	-1.084307e+02
1.820000e-06	-4.561808e-08	-3.919333e-10	-2.477342e-01	-1.026156e+02
1.830000e-06	1.488445e-08	-3.692312e-10	8.083171e-02	-9.670553e+01
1.840000e-06	7.536218e-08	-3.470851e-10	4.092630e-01	-9.070540e+01
1.850000e-06	1.360783e-07	-3.253505e-10	7.389888e-01	-8.462064e+01
1.860000e-06	1.968816e-07	-3.021445e-10	1.069188e+00	-7.845724e+01
1.870000e-06	2.575681e-07	-2.767759e-10	1.398753e+00	-7.222165e+01
1.880000e-06	3.181406e-07	-2.508018e-10	1.727699e+00	-6.592071e+01
1.890000e-06	3.787306e-07	-2.263161e-10	2.056740e+00	-5.956166e+01
1.900000e-06	4.393583e-07	-2.034717e-10	2.385986e+00	-5.315200e+01
1.910000e-06	4.999769e-07	-1.803896e-10	2.715182e+00	-4.669944e+01
1.920000e-06	5.605758e-07	-1.554858e-10	3.044271e+00	-4.021187e+01
1.930000e-06	6.211586e-07	-1.291565e-10	3.373273e+00	-3.369724e+01
1.940000e-06	6.816170e-07	-1.022087e-10	3.701600e+00	-2.716352e+01
1.950000e-06	7.419398e-07	-7.484459e-11	4.029190e+00	-2.061861e+01
1.960000e-06	8.023085e-07	-4.767532e-11	4.357029e+00	-1.407031e+01
1.970000e-06	8.626306e-07	-2.092806e-11	4.684615e+00	-7.526221e+00
1.980000e-06	9.228454e-07	6.223801e-12	5.011618e+00	-9.937039e-01
1.990000e-06	9.830870e-07	3.348906e-11	5.338767e+00	5.520173e+00
2.000000e-06	1.043271e-06	5.985712e-11	5.665603e+00	1.200869e+01
2.010000e-06	1.103358e-06	8.511060e-11	5.991911e+00	1.846550e+01
2.020000e-06	1.163402e-06	1.098771e-10	6.317990e+00	2.488469e+01
2.030000e-06	1.223370e-06	1.340664e-10	6.643651e+00	3.126082e+01
2.040000e-06	1.283317e-06	1.566749e-10	6.969201e+00	3.758888e+01
2.050000e-06	1.343222e-06	1.790330e-10	7.294520e+00	4.386440e+01
2.060000e-06	1.403048e-06	2.020429e-10	7.619415e+00	5.008338e+01
2.070000e-06	1.462804e-06	2.257452e-10	7.943923e+00	5.624235e+01
2.080000e-06	1.522481e-06	2.507307e-10	8.268008e+00	6.233833e+01
2.090000e-06	1.582128e-06	2.745087e-10	8.591926e+00	6.836887e+01
2.100000e-06	1.641722e-06	2.962818e-10	8.915560e+00	7.433196e+01
2.110000e-06	1.701147e-06	3.171233e-10	9.238274e+00	8.022608e+01
2.120000e-06	1.760506e-06	3.368701e-10	9.560633e+00	8.605017e+01
2.130000e-06	1.819790e-06	3.569886e-10	9.882578e+00	9.180357e+01
2.140000e-06	1.878905e-06	3.792079e-10	1.020361e+01	9.748600e+01
2.150000e-06	1.937930e-06	4.016994e-10	1.052415e+01	1.030976e+02
2.160000e-06	1.996774e-06	4.222156e-10	1.084371e+01	1.086386e+02
2.170000e-06	2.055248e-06	4.416469e-10	1.116126e+01	1.141099e+02
2.180000e-06	2.113399e-06	4.611314e-10	1.147706e+01	1.195124e+02
2.190000e-06	2.171442e-06	4.810070e-10	1.179227e+01	1.248471e+02
2.200000e-06	2.229283e-06	5.001653e-10	1.210638e+01	1.301154e+02
2.210000e-06	2.286745e-06	5.182533e-10	1.241843e+01	1.353188e+02
2.220000e-06	2.343877e-06	5.366913e-10	1.272870e+01	1.404588e+02
2.230000e-06	2.400683e-06	5.555331e-10	1.303719e+01	1.455370e+02
2.240000e-06	2.457184e-06	5.744598e-10	1.334402e+01	1.505550e+02
2.250000e-06	2.513518e-06	5.931786e-10	1.364995e+01	1.555144e+02
2.260000e-06	2.569706e-06	6.097372e-10	1.395509e+01	1.604168e+02
2.270000e-06	2.625734e-06	6.251571e-10	1.425935e+01	1.652638e+02
2.280000e-06	2.681624e-06	6.424562e-10	1.456287e+01	1.700568e+02
2.290000e-06	2.737458e-06	6.607991e-10	1.486608e+01	1.747971e+02
2.300000e-06	2.793274e-06	6.784509e-10	1.516919e+01	1.794860e+02
2.310000e-06	2.848854e-06	6.947921e-10	1.547103e+01	1.841245e+02
2.320000e-06	2.904153e-06	7.095303e-10	1.577134e+01	1.887136e+02
2.330000e-06	2.959351e-06	7.247542e-10	1.607109e+01	1.932540e+02
2.340000e-06	3.014426e-06	7.419312e-10	1.637019e+01	1.977463e+02
2.350000e-06	3.069301e-06	7.592586e-10	1.666819e+01	2.021911e+02
2.360000e-06	3.123885e-06	7.751355e-10	1.696462e+01	2.065884e+02
2.370000e-06	3.178226e-06	7.900357e-10	1.725972e+01	2.109385e+02
2.380000e-06	3.232372e-06	8.055394e-10	1.755377e+01	2.152413e+02
2.390000e-06	3.286323e-06	8.218073e-10	1.784675e+01	2.194966e+02
2.400000e-06	3.340063e-06	8.368962e-10	1.813859e+01	2.237040e+02
2.410000e-06	3.393545e-06	8.514267e-10	1.842904e+01	2.278629e+02
2.420000e-06	3.446727e-06	8.669818e-10	1.871784e+01	2.319729e+02
2.430000e-06	3.499748e-06	8.834705e-10	1.900578e+01	2.360331e+02
2.440000e-06	3.552534e-06	9.001302e-10	1.929244e+01	2.400428e+02
2.450000e-06	3.605007e-06	9.149576e-10	1.957740e+01	2.440011e+02
2.460000e-06	3.657279e-06	9.275743e-10	1.986127e+01	2.479069e+02
2.470000e-06	3.709268e-06	9.402825e-10	2.014361e+01	2.517594e+02
2.480000e-06	3.760987e-06	9.549644e-10	2.042447e+01	2.555575e+02
2.490000e-06	3.812414e-06	9.705918e-10	2.070375e+01	2.593001e+02
2.500000e-06	3.863404e-06	9.848566e-10	2.098066e+01	2.629865e+02
2.510000e-06	3.914035e-06	9.978398e-10	2.125562e+01	2.666155e+02
2.520000e-06	3.964304e-06	1.010406e-09	2.152861e+01	2.701863e+02
2.530000e-06	4.013970e-06	1.023227e-09	2.179832e+01	2.736980e+02
2.540000e-06	4.063082e-06	1.036706e-09	2.206504e+01	2.771500e+02
2.550000e-06	4.111823e-06	1.050016e-09	2.232973e+01	2.805417e+02
2.560000e-06	4.160255e-06	1.062945e-09	2.259274e+01	2.838725e+02
2.570000e-06	4.208421e-06	1.075695e-09	2.285431e+01	2.871421e+02
2.580000e-06	4.256348e-06	1.088217e-09	2.311459e+01	2.903503e+02
2.590000e-06	4.303969e-06	1.099890e-09	2.337320e+01	2.934970e+02
2.600000e-06	4.351343e-06	1.110593e-09	2.363047e+01	2.965823e+02
2.610000e-06	4.398299e-06	1.120831e-09	2.388547e+01	2.996065e+02
2.620000e-06	4.445003e-06	1.131952e-09	2.413910e+01	3.025700e+02
2.630000e-06	4.491671e-06	1.144540e-09	2.439254e+01	3.054735e+02
2.640000e-06	4.537967e-06	1.157121e-09	2.464395e+01	3.083176e+02
2.650000e-06	4.583807e-06	1.168753e-09	2.489289e+01	3.111033e+02
2.660000e-06	4.629341e-06	1.179006e-09	2.514017e+01	3.138317e+02
2.670000e-06	4.674592e-06	1.187761e-09	2.538591e+01	3.165040e+02
2.680000e-06	4.719497e-06	1.196398e-09	2.562977e+01	3.191215e+02
2.690000e-06	4.764111e-06	1.205686e-09	2.587205e+01	3.216857e+02
2.700000e-06	4.808471e-06	1.214862e-09	2.611296e+01	3.241981e+02
2.710000e-06	4.852595e-06	1.224154e-09	2.635258e+01	3.266604e+02
2.720000e-06	4.896498e-06	1.233394e-09	2.659100e+01	3.290742e+02
2.730000e-06	4.940175e-06	1.242710e-09	2.682819e+01	3.314414e+02
2.740000e-06	4.983583e-06	1.252002e-09	2.706392e+01	3.337637e+02
2.750000e-06	5.026702e-06	1.260639e-09	2.729808e+01	3.360429e+02
2.760000e-06	5.069293e-06	1.269354e-09	2.752938e+01	3.382807e+02
2.770000e-06	5.111144e-06	1.277787e-09	2.775665e+01	3.404788e+02
2.780000e-06	5.152267e-06	1.285834e-09	2.797998e+01	3.426391e+02
2.790000e-06	5.192791e-06	1.293620e-09	2.820005e+01	3.447631e+02
2.800000e-06	5.232948e-06	1.300405e-09	2.841813e+01	3.468523e+02
2.810000e-06	5.272881e-06	1.307184e-09	2.863499e+01	3.489081e+02
2.820000e-06	5.312584e-06	1.314756e-09	2.885060e+01	3.509320e+02
2.830000e-06	5.352091e-06	1.322837e-09	2.906515e+01	3.529252e+02
2.840000e-06	5.391400e-06	1.331362e-09	2.927862e+01	3.548887e+02
2.850000e-06	5.430366e-06	1.339647e-09	2.949023e+01	3.568235e+02
2.860000e-06	5.468805e-06	1.347160e-09	2.969897e+01	3.587305e+02
2.870000e-06	5.506736e-06	1.353792e-09	2.990496e+01	3.606104e+02
2.880000e-06	5.544292e-06	1.360367e-09	3.010891e+01	3.624637e+02
2.890000e-06	5.581426e-06	1.366882e-09	3.031058e+01	3.642910e+02
2.900000e-06	5.618165e-06	1.373611e-09	3.051009e+01	3.660926e+02
