# Temperatura_=_20.0
# Concentracion g/m^3_=_7400.0
# C_Vs_to_Am_M_A/Vsm_=_254322799225.57578
# pendiente_HvsI_1/m_=_3716.3
# ordenada_HvsI_A/m_=_1297.0
# frecuencia_Hz_=_136127.18215421817

Tiempo_(s)	Campo_(V.s)	Magnetizacion_(V.s)	Campo_(kA/m)	Magnetizacion_(A/m)
0.000000e+00	-7.103387e-06	-1.709510e-09	-3.842302e+01	-4.252942e+02
1.000000e-08	-7.103646e-06	-1.710374e-09	-3.842442e+01	-4.254595e+02
2.000000e-08	-7.103601e-06	-1.710557e-09	-3.842418e+01	-4.256032e+02
3.000000e-08	-7.103071e-06	-1.708898e-09	-3.842131e+01	-4.257253e+02
4.000000e-08	-7.101946e-06	-1.706391e-09	-3.841523e+01	-4.258259e+02
5.000000e-08	-7.100099e-06	-1.704872e-09	-3.840524e+01	-4.259051e+02
6.000000e-08	-7.097496e-06	-1.704722e-09	-3.839116e+01	-4.259632e+02
7.000000e-08	-7.094308e-06	-1.705223e-09	-3.837391e+01	-4.260002e+02
8.000000e-08	-7.090636e-06	-1.707802e-09	-3.835405e+01	-4.260165e+02
9.000000e-08	-7.086416e-06	-1.706706e-09	-3.833122e+01	-4.260124e+02
1.000000e-07	-7.081519e-06	-1.690535e-09	-3.830474e+01	-4.259882e+02
1.100000e-07	-7.075919e-06	-1.672126e-09	-3.827444e+01	-4.259442e+02
1.200000e-07	-7.069886e-06	-1.692046e-09	-3.824181e+01	-4.258807e+02
1.300000e-07	-7.063651e-06	-1.736717e-09	-3.820808e+01	-4.257981e+02
1.400000e-07	-7.057194e-06	-1.720809e-09	-3.817316e+01	-4.256968e+02
1.500000e-07	-7.050273e-06	-1.658272e-09	-3.813572e+01	-4.255769e+02
1.600000e-07	-7.042706e-06	-1.672345e-09	-3.809479e+01	-4.254390e+02
1.700000e-07	-7.034792e-06	-1.742410e-09	-3.805198e+01	-4.252831e+02
1.800000e-07	-7.026475e-06	-1.712310e-09	-3.800700e+01	-4.251096e+02
1.900000e-07	-7.017540e-06	-1.618131e-09	-3.795867e+01	-4.249187e+02
2.000000e-07	-7.007968e-06	-1.653542e-09	-3.790689e+01	-4.247105e+02
2.100000e-07	-6.997695e-06	-1.760716e-09	-3.785132e+01	-4.244853e+02
2.200000e-07	-6.986822e-06	-1.719649e-09	-3.779251e+01	-4.242431e+02
2.300000e-07	-6.975422e-06	-1.608633e-09	-3.773085e+01	-4.239842e+02
2.400000e-07	-6.963533e-06	-1.648727e-09	-3.766654e+01	-4.237084e+02
2.500000e-07	-6.951085e-06	-1.734348e-09	-3.759920e+01	-4.234160e+02
2.600000e-07	-6.937942e-06	-1.680291e-09	-3.752811e+01	-4.231070e+02
2.700000e-07	-6.924250e-06	-1.619263e-09	-3.745405e+01	-4.227813e+02
2.800000e-07	-6.909945e-06	-1.684403e-09	-3.737667e+01	-4.224391e+02
2.900000e-07	-6.894864e-06	-1.714874e-09	-3.729510e+01	-4.220803e+02
3.000000e-07	-6.878940e-06	-1.645426e-09	-3.720896e+01	-4.217051e+02
3.100000e-07	-6.862377e-06	-1.640930e-09	-3.711937e+01	-4.213134e+02
3.200000e-07	-6.845479e-06	-1.688368e-09	-3.702797e+01	-4.209054e+02
3.300000e-07	-6.828265e-06	-1.651265e-09	-3.693485e+01	-4.204812e+02
3.400000e-07	-6.810702e-06	-1.624558e-09	-3.683986e+01	-4.200408e+02
3.500000e-07	-6.792678e-06	-1.694431e-09	-3.674236e+01	-4.195845e+02
3.600000e-07	-6.774106e-06	-1.691933e-09	-3.664191e+01	-4.191125e+02
3.700000e-07	-6.754966e-06	-1.604226e-09	-3.653837e+01	-4.186249e+02
3.800000e-07	-6.735389e-06	-1.624152e-09	-3.643248e+01	-4.181222e+02
3.900000e-07	-6.715511e-06	-1.692765e-09	-3.632496e+01	-4.176046e+02
4.000000e-07	-6.695311e-06	-1.641629e-09	-3.621570e+01	-4.170725e+02
4.100000e-07	-6.674546e-06	-1.595797e-09	-3.610337e+01	-4.165263e+02
4.200000e-07	-6.653199e-06	-1.655930e-09	-3.598791e+01	-4.159665e+02
4.300000e-07	-6.631388e-06	-1.665226e-09	-3.586993e+01	-4.153935e+02
4.400000e-07	-6.609153e-06	-1.606449e-09	-3.574966e+01	-4.148079e+02
4.500000e-07	-6.586478e-06	-1.617937e-09	-3.562700e+01	-4.142101e+02
4.600000e-07	-6.563417e-06	-1.642927e-09	-3.550226e+01	-4.136007e+02
4.700000e-07	-6.539976e-06	-1.605482e-09	-3.537547e+01	-4.129803e+02
4.800000e-07	-6.516159e-06	-1.605283e-09	-3.524664e+01	-4.123494e+02
4.900000e-07	-6.492056e-06	-1.638832e-09	-3.511626e+01	-4.117084e+02
5.000000e-07	-6.467452e-06	-1.608749e-09	-3.498318e+01	-4.110580e+02
5.100000e-07	-6.442145e-06	-1.578229e-09	-3.484629e+01	-4.103985e+02
5.200000e-07	-6.416076e-06	-1.605330e-09	-3.470528e+01	-4.097304e+02
5.300000e-07	-6.389314e-06	-1.606350e-09	-3.456052e+01	-4.090541e+02
5.400000e-07	-6.362070e-06	-1.579582e-09	-3.441316e+01	-4.083699e+02
5.500000e-07	-6.334491e-06	-1.588733e-09	-3.426398e+01	-4.076780e+02
5.600000e-07	-6.306569e-06	-1.595892e-09	-3.411294e+01	-4.069786e+02
5.700000e-07	-6.278264e-06	-1.576191e-09	-3.395984e+01	-4.062717e+02
5.800000e-07	-6.249602e-06	-1.573307e-09	-3.380480e+01	-4.055575e+02
5.900000e-07	-6.220402e-06	-1.575272e-09	-3.364686e+01	-4.048356e+02
6.000000e-07	-6.190662e-06	-1.561286e-09	-3.348599e+01	-4.041060e+02
6.100000e-07	-6.160605e-06	-1.559398e-09	-3.332341e+01	-4.033683e+02
6.200000e-07	-6.130196e-06	-1.565080e-09	-3.315892e+01	-4.026222e+02
6.300000e-07	-6.099393e-06	-1.555967e-09	-3.299231e+01	-4.018670e+02
6.400000e-07	-6.068160e-06	-1.548631e-09	-3.282336e+01	-4.011022e+02
6.500000e-07	-6.036547e-06	-1.545748e-09	-3.265237e+01	-4.003270e+02
6.600000e-07	-6.004665e-06	-1.536470e-09	-3.247991e+01	-3.995406e+02
6.700000e-07	-5.972465e-06	-1.533197e-09	-3.230574e+01	-3.987421e+02
6.800000e-07	-5.939695e-06	-1.533919e-09	-3.212848e+01	-3.979305e+02
6.900000e-07	-5.906196e-06	-1.527161e-09	-3.194728e+01	-3.971047e+02
7.000000e-07	-5.871875e-06	-1.521466e-09	-3.176164e+01	-3.962635e+02
7.100000e-07	-5.836901e-06	-1.518076e-09	-3.157246e+01	-3.954058e+02
7.200000e-07	-5.801648e-06	-1.510797e-09	-3.138177e+01	-3.945303e+02
7.300000e-07	-5.766156e-06	-1.507402e-09	-3.118979e+01	-3.936357e+02
7.400000e-07	-5.730472e-06	-1.507008e-09	-3.099677e+01	-3.927208e+02
7.500000e-07	-5.694543e-06	-1.500952e-09	-3.080242e+01	-3.917841e+02
7.600000e-07	-5.658200e-06	-1.496182e-09	-3.060584e+01	-3.908245e+02
7.700000e-07	-5.621362e-06	-1.495432e-09	-3.040658e+01	-3.898406e+02
7.800000e-07	-5.583993e-06	-1.488500e-09	-3.020445e+01	-3.888311e+02
7.900000e-07	-5.546285e-06	-1.479242e-09	-3.000048e+01	-3.877949e+02
8.000000e-07	-5.508217e-06	-1.474036e-09	-2.979457e+01	-3.867309e+02
8.100000e-07	-5.469618e-06	-1.469900e-09	-2.958578e+01	-3.856379e+02
8.200000e-07	-5.430560e-06	-1.466351e-09	-2.937451e+01	-3.845149e+02
8.300000e-07	-5.391157e-06	-1.462807e-09	-2.916138e+01	-3.833611e+02
8.400000e-07	-5.351508e-06	-1.456892e-09	-2.894691e+01	-3.821758e+02
8.500000e-07	-5.311721e-06	-1.449822e-09	-2.873170e+01	-3.809581e+02
8.600000e-07	-5.271673e-06	-1.443432e-09	-2.851507e+01	-3.797076e+02
8.700000e-07	-5.231165e-06	-1.438424e-09	-2.829596e+01	-3.784239e+02
8.800000e-07	-5.190138e-06	-1.433755e-09	-2.807404e+01	-3.771067e+02
8.900000e-07	-5.148475e-06	-1.427246e-09	-2.784868e+01	-3.757557e+02
9.000000e-07	-5.106242e-06	-1.420168e-09	-2.762024e+01	-3.743711e+02
9.100000e-07	-5.063534e-06	-1.415363e-09	-2.738923e+01	-3.729529e+02
9.200000e-07	-5.020331e-06	-1.410208e-09	-2.715554e+01	-3.715013e+02
9.300000e-07	-4.976781e-06	-1.402405e-09	-2.691997e+01	-3.700167e+02
9.400000e-07	-4.933016e-06	-1.394082e-09	-2.668324e+01	-3.684996e+02
9.500000e-07	-4.889043e-06	-1.386983e-09	-2.644539e+01	-3.669507e+02
9.600000e-07	-4.844791e-06	-1.381612e-09	-2.620602e+01	-3.653705e+02
9.700000e-07	-4.800118e-06	-1.376083e-09	-2.596438e+01	-3.637599e+02
9.800000e-07	-4.755124e-06	-1.368991e-09	-2.572100e+01	-3.621197e+02
9.900000e-07	-4.709870e-06	-1.360990e-09	-2.547622e+01	-3.604509e+02
1.000000e-06	-4.664084e-06	-1.353015e-09	-2.522856e+01	-3.587544e+02
1.010000e-06	-4.617761e-06	-1.346197e-09	-2.497799e+01	-3.570312e+02
1.020000e-06	-4.571277e-06	-1.340705e-09	-2.472655e+01	-3.552824e+02
1.030000e-06	-4.524744e-06	-1.335266e-09	-2.447485e+01	-3.535089e+02
1.040000e-06	-4.477817e-06	-1.328543e-09	-2.422102e+01	-3.517117e+02
1.050000e-06	-4.430498e-06	-1.321554e-09	-2.396506e+01	-3.498917e+02
1.060000e-06	-4.382966e-06	-1.315234e-09	-2.370796e+01	-3.480500e+02
1.070000e-06	-4.335255e-06	-1.308524e-09	-2.344988e+01	-3.461871e+02
1.080000e-06	-4.287372e-06	-1.300948e-09	-2.319088e+01	-3.443041e+02
1.090000e-06	-4.239272e-06	-1.292575e-09	-2.293070e+01	-3.424014e+02
1.100000e-06	-4.190854e-06	-1.284337e-09	-2.266880e+01	-3.404795e+02
1.110000e-06	-4.141935e-06	-1.276640e-09	-2.240419e+01	-3.385391e+02
1.120000e-06	-4.092426e-06	-1.268345e-09	-2.213639e+01	-3.365802e+02
1.130000e-06	-4.042431e-06	-1.258895e-09	-2.186597e+01	-3.346032e+02
1.140000e-06	-3.992114e-06	-1.249750e-09	-2.159379e+01	-3.326079e+02
1.150000e-06	-3.941327e-06	-1.241937e-09	-2.131908e+01	-3.305944e+02
1.160000e-06	-3.890008e-06	-1.234715e-09	-2.104149e+01	-3.285624e+02
1.170000e-06	-3.838435e-06	-1.226739e-09	-2.076253e+01	-3.265115e+02
1.180000e-06	-3.786651e-06	-1.217570e-09	-2.048242e+01	-3.244412e+02
1.190000e-06	-3.734483e-06	-1.207127e-09	-2.020024e+01	-3.223509e+02
1.200000e-06	-3.682033e-06	-1.197530e-09	-1.991653e+01	-3.202400e+02
1.210000e-06	-3.629385e-06	-1.189817e-09	-1.963176e+01	-3.181075e+02
1.220000e-06	-3.576470e-06	-1.183061e-09	-1.934553e+01	-3.159527e+02
1.230000e-06	-3.523339e-06	-1.175742e-09	-1.905814e+01	-3.137745e+02
1.240000e-06	-3.469975e-06	-1.166903e-09	-1.876949e+01	-3.115719e+02
1.250000e-06	-3.416359e-06	-1.157520e-09	-1.847947e+01	-3.093439e+02
1.260000e-06	-3.362571e-06	-1.148168e-09	-1.818853e+01	-3.070894e+02
1.270000e-06	-3.308595e-06	-1.138739e-09	-1.789656e+01	-3.048074e+02
1.280000e-06	-3.254365e-06	-1.128824e-09	-1.760323e+01	-3.024968e+02
1.290000e-06	-3.199881e-06	-1.119614e-09	-1.730852e+01	-3.001566e+02
1.300000e-06	-3.145136e-06	-1.110690e-09	-1.701239e+01	-2.977858e+02
1.310000e-06	-3.090030e-06	-1.100964e-09	-1.671432e+01	-2.953835e+02
1.320000e-06	-3.034575e-06	-1.090964e-09	-1.641436e+01	-2.929488e+02
1.330000e-06	-2.978955e-06	-1.080480e-09	-1.611350e+01	-2.904809e+02
1.340000e-06	-2.923300e-06	-1.069911e-09	-1.581246e+01	-2.879791e+02
1.350000e-06	-2.867552e-06	-1.059580e-09	-1.551091e+01	-2.854428e+02
1.360000e-06	-2.811651e-06	-1.049460e-09	-1.520854e+01	-2.828714e+02
1.370000e-06	-2.755723e-06	-1.040440e-09	-1.490602e+01	-2.802645e+02
1.380000e-06	-2.699788e-06	-1.031943e-09	-1.460346e+01	-2.776216e+02
1.390000e-06	-2.643701e-06	-1.022852e-09	-1.430008e+01	-2.749423e+02
1.400000e-06	-2.587470e-06	-1.012409e-09	-1.399592e+01	-2.722264e+02
1.410000e-06	-2.531022e-06	-1.001006e-09	-1.369058e+01	-2.694735e+02
1.420000e-06	-2.474267e-06	-9.899983e-10	-1.338359e+01	-2.666834e+02
1.430000e-06	-2.417306e-06	-9.794834e-10	-1.307548e+01	-2.638557e+02
1.440000e-06	-2.360064e-06	-9.685906e-10	-1.276585e+01	-2.609901e+02
1.450000e-06	-2.302367e-06	-9.579404e-10	-1.245376e+01	-2.580863e+02
1.460000e-06	-2.244334e-06	-9.480951e-10	-1.213985e+01	-2.551437e+02
1.470000e-06	-2.186096e-06	-9.376764e-10	-1.182484e+01	-2.521618e+02
1.480000e-06	-2.127535e-06	-9.262362e-10	-1.150808e+01	-2.491398e+02
1.490000e-06	-2.068680e-06	-9.152072e-10	-1.118972e+01	-2.460767e+02
1.500000e-06	-2.009550e-06	-9.042496e-10	-1.086988e+01	-2.429716e+02
1.510000e-06	-1.950219e-06	-8.918436e-10	-1.054895e+01	-2.398231e+02
1.520000e-06	-1.890797e-06	-8.791027e-10	-1.022753e+01	-2.366297e+02
1.530000e-06	-1.831218e-06	-8.677172e-10	-9.905262e+00	-2.333897e+02
1.540000e-06	-1.771597e-06	-8.563782e-10	-9.582769e+00	-2.301009e+02
1.550000e-06	-1.711969e-06	-8.442385e-10	-9.260231e+00	-2.267613e+02
1.560000e-06	-1.652286e-06	-8.319785e-10	-8.937400e+00	-2.233682e+02
1.570000e-06	-1.592630e-06	-8.197073e-10	-8.614714e+00	-2.199189e+02
1.580000e-06	-1.532959e-06	-8.078181e-10	-8.291948e+00	-2.164103e+02
1.590000e-06	-1.473169e-06	-7.955153e-10	-7.968538e+00	-2.128392e+02
1.600000e-06	-1.413352e-06	-7.825364e-10	-7.644983e+00	-2.092020e+02
1.610000e-06	-1.353490e-06	-7.688362e-10	-7.321179e+00	-2.054953e+02
1.620000e-06	-1.293504e-06	-7.544067e-10	-6.996708e+00	-2.017151e+02
1.630000e-06	-1.233429e-06	-7.404295e-10	-6.671754e+00	-1.978575e+02
1.640000e-06	-1.173207e-06	-7.264827e-10	-6.346009e+00	-1.939186e+02
1.650000e-06	-1.112944e-06	-7.109488e-10	-6.020037e+00	-1.898943e+02
1.660000e-06	-1.052639e-06	-6.950534e-10	-5.693846e+00	-1.857807e+02
1.670000e-06	-9.922939e-07	-6.796026e-10	-5.367430e+00	-1.815739e+02
1.680000e-06	-9.319532e-07	-6.639482e-10	-5.041040e+00	-1.772700e+02
1.690000e-06	-8.716117e-07	-6.488736e-10	-4.714646e+00	-1.728656e+02
1.700000e-06	-8.112963e-07	-6.338844e-10	-4.388393e+00	-1.683572e+02
1.710000e-06	-7.508273e-07	-6.177984e-10	-4.061310e+00	-1.637421e+02
1.720000e-06	-6.902208e-07	-6.007145e-10	-3.733482e+00	-1.590174e+02
1.730000e-06	-6.295526e-07	-5.828872e-10	-3.405321e+00	-1.541811e+02
1.740000e-06	-5.687711e-07	-5.644029e-10	-3.076547e+00	-1.492314e+02
1.750000e-06	-5.080295e-07	-5.450695e-10	-2.747989e+00	-1.441672e+02
1.760000e-06	-4.473247e-07	-5.258199e-10	-2.419630e+00	-1.389879e+02
1.770000e-06	-3.864264e-07	-5.062511e-10	-2.090224e+00	-1.336935e+02
1.780000e-06	-3.254528e-07	-4.846133e-10	-1.760411e+00	-1.282847e+02
1.790000e-06	-2.646058e-07	-4.622953e-10	-1.431283e+00	-1.227629e+02
1.800000e-06	-2.037881e-07	-4.407993e-10	-1.102313e+00	-1.171301e+02
1.810000e-06	-1.429228e-07	-4.196610e-10	-7.730856e-01	-1.113891e+02
1.820000e-06	-8.203381e-08	-3.973253e-10	-4.437301e-01	-1.055432e+02
1.830000e-06	-2.106080e-08	-3.733968e-10	-1.139202e-01	-9.959672e+01
1.840000e-06	3.982953e-08	-3.490680e-10	2.154424e-01	-9.355433e+01
1.850000e-06	1.006497e-07	-3.257830e-10	5.444257e-01	-8.742151e+01
1.860000e-06	1.615161e-07	-3.034591e-10	8.736587e-01	-8.120432e+01
1.870000e-06	2.222839e-07	-2.799595e-10	1.202359e+00	-7.490937e+01
1.880000e-06	2.830324e-07	-2.540609e-10	1.530954e+00	-6.854380e+01
1.890000e-06	3.438997e-07	-2.270749e-10	1.860192e+00	-6.211520e+01
1.900000e-06	4.048624e-07	-2.015988e-10	2.189946e+00	-5.563154e+01
1.910000e-06	4.657155e-07	-1.780954e-10	2.519108e+00	-4.910114e+01
1.920000e-06	5.264724e-07	-1.543484e-10	2.847749e+00	-4.253255e+01
1.930000e-06	5.872480e-07	-1.279158e-10	3.176491e+00	-3.593447e+01
1.940000e-06	6.479558e-07	-9.963157e-11	3.504866e+00	-2.931574e+01
1.950000e-06	7.085206e-07	-7.217125e-11	3.832468e+00	-2.268516e+01
1.960000e-06	7.689696e-07	-4.615575e-11	4.159443e+00	-1.605151e+01
1.970000e-06	8.294027e-07	-2.015079e-11	4.486333e+00	-9.423376e+00
1.980000e-06	8.898264e-07	7.396492e-12	4.813171e+00	-2.809155e+00
1.990000e-06	9.502008e-07	3.631339e-11	5.139743e+00	3.783068e+00
2.000000e-06	1.010542e-06	6.350944e-11	5.466134e+00	1.034557e+01
2.010000e-06	1.070853e-06	8.765544e-11	5.792363e+00	1.687105e+01
2.020000e-06	1.131035e-06	1.118234e-10	6.117897e+00	2.335268e+01
2.030000e-06	1.191115e-06	1.373372e-10	6.442878e+00	2.978420e+01
2.040000e-06	1.251150e-06	1.623925e-10	6.767612e+00	3.615986e+01
2.050000e-06	1.311061e-06	1.855812e-10	7.091675e+00	4.247456e+01
2.060000e-06	1.370878e-06	2.074216e-10	7.415236e+00	4.872381e+01
2.070000e-06	1.430654e-06	2.296648e-10	7.738569e+00	5.490376e+01
2.080000e-06	1.490438e-06	2.544014e-10	8.061945e+00	6.101119e+01
2.090000e-06	1.550211e-06	2.787836e-10	8.385264e+00	6.704353e+01
2.100000e-06	1.609941e-06	2.999636e-10	8.708355e+00	7.299885e+01
2.110000e-06	1.669635e-06	3.200074e-10	9.031245e+00	7.887581e+01
2.120000e-06	1.729258e-06	3.400314e-10	9.353751e+00	8.467367e+01
2.130000e-06	1.788816e-06	3.611656e-10	9.675908e+00	9.039220e+01
2.140000e-06	1.848320e-06	3.830632e-10	9.997769e+00	9.603170e+01
2.150000e-06	1.907708e-06	4.040009e-10	1.031901e+01	1.015929e+02
2.160000e-06	1.966981e-06	4.236547e-10	1.063962e+01	1.070770e+02
2.170000e-06	2.026063e-06	4.423910e-10	1.095920e+01	1.124854e+02
2.180000e-06	2.084779e-06	4.604582e-10	1.127681e+01	1.178200e+02
2.190000e-06	2.143281e-06	4.792303e-10	1.159325e+01	1.230828e+02
2.200000e-06	2.201750e-06	4.988083e-10	1.190952e+01	1.282759e+02
2.210000e-06	2.259920e-06	5.167324e-10	1.222416e+01	1.334016e+02
2.220000e-06	2.317646e-06	5.343331e-10	1.253641e+01	1.384624e+02
2.230000e-06	2.375043e-06	5.532835e-10	1.284687e+01	1.434605e+02
2.240000e-06	2.432064e-06	5.715039e-10	1.315531e+01	1.483983e+02
2.250000e-06	2.488797e-06	5.886022e-10	1.346218e+01	1.532779e+02
2.260000e-06	2.545333e-06	6.057878e-10	1.376799e+01	1.581015e+02
2.270000e-06	2.601582e-06	6.230162e-10	1.407225e+01	1.628710e+02
2.280000e-06	2.657544e-06	6.399974e-10	1.437495e+01	1.675879e+02
2.290000e-06	2.713404e-06	6.565088e-10	1.467711e+01	1.722537e+02
2.300000e-06	2.769271e-06	6.728429e-10	1.497930e+01	1.768697e+02
2.310000e-06	2.825064e-06	6.893252e-10	1.528109e+01	1.814368e+02
2.320000e-06	2.880734e-06	7.057165e-10	1.558222e+01	1.859555e+02
2.330000e-06	2.936238e-06	7.213430e-10	1.588244e+01	1.904263e+02
2.340000e-06	2.991518e-06	7.372921e-10	1.618146e+01	1.948493e+02
2.350000e-06	3.046544e-06	7.539329e-10	1.647910e+01	1.992244e+02
2.360000e-06	3.101341e-06	7.696355e-10	1.677550e+01	2.035511e+02
2.370000e-06	3.155943e-06	7.844956e-10	1.707085e+01	2.078289e+02
2.380000e-06	3.210315e-06	7.995578e-10	1.736496e+01	2.120570e+02
2.390000e-06	3.264628e-06	8.154437e-10	1.765874e+01	2.162345e+02
2.400000e-06	3.318870e-06	8.311413e-10	1.795214e+01	2.203603e+02
2.410000e-06	3.372784e-06	8.457447e-10	1.824377e+01	2.244331e+02
2.420000e-06	3.426418e-06	8.606930e-10	1.853388e+01	2.284518e+02
2.430000e-06	3.479754e-06	8.763328e-10	1.882238e+01	2.324152e+02
2.440000e-06	3.532836e-06	8.918435e-10	1.910951e+01	2.363218e+02
2.450000e-06	3.585771e-06	9.069677e-10	1.939584e+01	2.401706e+02
2.460000e-06	3.638401e-06	9.210460e-10	1.968052e+01	2.439602e+02
2.470000e-06	3.690737e-06	9.348869e-10	1.996361e+01	2.476898e+02
2.480000e-06	3.742784e-06	9.497400e-10	2.024514e+01	2.513582e+02
2.490000e-06	3.794459e-06	9.646095e-10	2.052466e+01	2.549647e+02
2.500000e-06	3.845877e-06	9.783040e-10	2.080279e+01	2.585087e+02
2.510000e-06	3.897218e-06	9.910766e-10	2.108049e+01	2.619896e+02
2.520000e-06	3.948272e-06	1.004004e-09	2.135665e+01	2.654072e+02
2.530000e-06	3.998691e-06	1.016594e-09	2.162937e+01	2.687614e+02
2.540000e-06	4.048548e-06	1.028264e-09	2.189905e+01	2.720523e+02
2.550000e-06	4.098001e-06	1.039869e-09	2.216655e+01	2.752802e+02
2.560000e-06	4.147026e-06	1.052347e-09	2.243173e+01	2.784456e+02
2.570000e-06	4.195621e-06	1.065905e-09	2.269459e+01	2.815493e+02
2.580000e-06	4.243910e-06	1.078497e-09	2.295579e+01	2.845920e+02
2.590000e-06	4.291874e-06	1.088864e-09	2.321523e+01	2.875749e+02
2.600000e-06	4.339553e-06	1.098285e-09	2.347313e+01	2.904990e+02
2.610000e-06	4.387059e-06	1.108690e-09	2.373010e+01	2.933658e+02
2.620000e-06	4.434339e-06	1.120508e-09	2.398584e+01	2.961767e+02
2.630000e-06	4.481274e-06	1.132356e-09	2.423971e+01	2.989331e+02
2.640000e-06	4.527778e-06	1.143205e-09	2.449126e+01	3.016368e+02
2.650000e-06	4.573859e-06	1.153362e-09	2.474052e+01	3.042893e+02
2.660000e-06	4.619654e-06	1.163995e-09	2.498823e+01	3.068923e+02
2.670000e-06	4.665186e-06	1.174693e-09	2.523452e+01	3.094475e+02
2.680000e-06	4.710437e-06	1.183764e-09	2.547929e+01	3.119567e+02
2.690000e-06	4.755425e-06	1.191906e-09	2.572263e+01	3.144215e+02
2.700000e-06	4.800060e-06	1.200910e-09	2.596407e+01	3.168435e+02
2.710000e-06	4.844366e-06	1.210310e-09	2.620372e+01	3.192243e+02
2.720000e-06	4.888386e-06	1.219754e-09	2.644183e+01	3.215654e+02
2.730000e-06	4.932119e-06	1.229103e-09	2.667839e+01	3.238683e+02
2.740000e-06	4.975601e-06	1.236811e-09	2.691359e+01	3.261344e+02
2.750000e-06	5.018797e-06	1.244195e-09	2.714724e+01	3.283648e+02
2.760000e-06	5.061685e-06	1.252664e-09	2.737923e+01	3.305608e+02
2.770000e-06	5.104181e-06	1.260977e-09	2.760909e+01	3.327234e+02
2.780000e-06	5.146056e-06	1.268626e-09	2.783560e+01	3.348536e+02
2.790000e-06	5.187245e-06	1.275908e-09	2.805840e+01	3.369524e+02
2.800000e-06	5.227771e-06	1.283299e-09	2.827760e+01	3.390204e+02
2.810000e-06	5.267866e-06	1.290269e-09	2.849448e+01	3.410584e+02
2.820000e-06	5.307741e-06	1.296563e-09	2.871017e+01	3.430671e+02
2.830000e-06	5.347429e-06	1.302454e-09	2.892485e+01	3.450468e+02
2.840000e-06	5.386913e-06	1.308660e-09	2.913842e+01	3.469982e+02
2.850000e-06	5.426116e-06	1.316556e-09	2.935047e+01	3.489216e+02
2.860000e-06	5.464982e-06	1.324558e-09	2.956070e+01	3.508174e+02
2.870000e-06	5.503390e-06	1.331334e-09	2.976846e+01	3.526858e+02
2.880000e-06	5.541306e-06	1.338062e-09	2.997355e+01	3.545270e+02
2.890000e-06	5.578884e-06	1.345304e-09	3.017681e+01	3.563412e+02
2.900000e-06	5.616018e-06	1.352624e-09	3.037768e+01	3.581286e+02
