# Temperatura_=_-15.3
# Concentracion g/m^3_=_7400.0
# C_Vs_to_Am_M_A/Vsm_=_254322799225.57578
# pendiente_HvsI_1/m_=_3716.3
# ordenada_HvsI_A/m_=_1297.0
# frecuencia_Hz_=_136115.11117205856

Tiempo_(s)	Campo_(V.s)	Magnetizacion_(V.s)	Campo_(kA/m)	Magnetizacion_(A/m)
0.000000e+00	-7.144022e-06	-1.257752e-09	-3.843067e+01	-3.187812e+02
1.000000e-08	-7.144297e-06	-1.256175e-09	-3.843215e+01	-3.188116e+02
2.000000e-08	-7.144212e-06	-1.256063e-09	-3.843170e+01	-3.188209e+02
3.000000e-08	-7.143791e-06	-1.255359e-09	-3.842943e+01	-3.188090e+02
4.000000e-08	-7.142737e-06	-1.253555e-09	-3.842376e+01	-3.187761e+02
5.000000e-08	-7.140848e-06	-1.252828e-09	-3.841360e+01	-3.187225e+02
6.000000e-08	-7.138181e-06	-1.252152e-09	-3.839925e+01	-3.186485e+02
7.000000e-08	-7.134930e-06	-1.248341e-09	-3.838176e+01	-3.185546e+02
8.000000e-08	-7.131331e-06	-1.251217e-09	-3.836240e+01	-3.184415e+02
9.000000e-08	-7.127252e-06	-1.271470e-09	-3.834046e+01	-3.183099e+02
1.000000e-07	-7.122300e-06	-1.252258e-09	-3.831382e+01	-3.181606e+02
1.100000e-07	-7.116483e-06	-1.168786e-09	-3.828253e+01	-3.179946e+02
1.200000e-07	-7.110234e-06	-1.201891e-09	-3.824891e+01	-3.178127e+02
1.300000e-07	-7.104112e-06	-1.353969e-09	-3.821598e+01	-3.176161e+02
1.400000e-07	-7.097860e-06	-1.318764e-09	-3.818235e+01	-3.174059e+02
1.500000e-07	-7.090801e-06	-1.117963e-09	-3.814438e+01	-3.171830e+02
1.600000e-07	-7.083095e-06	-1.158293e-09	-3.810292e+01	-3.169486e+02
1.700000e-07	-7.075195e-06	-1.397342e-09	-3.806042e+01	-3.167037e+02
1.800000e-07	-7.066971e-06	-1.310939e-09	-3.801619e+01	-3.164493e+02
1.900000e-07	-7.057864e-06	-1.029808e-09	-3.796719e+01	-3.161863e+02
2.000000e-07	-7.047728e-06	-1.152040e-09	-3.791266e+01	-3.159156e+02
2.100000e-07	-7.037203e-06	-1.454682e-09	-3.785605e+01	-3.156379e+02
2.200000e-07	-7.026431e-06	-1.300877e-09	-3.779810e+01	-3.153539e+02
2.300000e-07	-7.014926e-06	-1.024559e-09	-3.773621e+01	-3.150641e+02
2.400000e-07	-7.002784e-06	-1.195218e-09	-3.767089e+01	-3.147689e+02
2.500000e-07	-6.990202e-06	-1.394328e-09	-3.760321e+01	-3.144684e+02
2.600000e-07	-6.977087e-06	-1.188194e-09	-3.753266e+01	-3.141629e+02
2.700000e-07	-6.963192e-06	-1.079373e-09	-3.745791e+01	-3.138523e+02
2.800000e-07	-6.948770e-06	-1.296312e-09	-3.738033e+01	-3.135363e+02
2.900000e-07	-6.933632e-06	-1.298278e-09	-3.729890e+01	-3.132148e+02
3.000000e-07	-6.917521e-06	-1.106429e-09	-3.721223e+01	-3.128872e+02
3.100000e-07	-6.900811e-06	-1.199055e-09	-3.712234e+01	-3.125530e+02
3.200000e-07	-6.883976e-06	-1.321788e-09	-3.703178e+01	-3.122115e+02
3.300000e-07	-6.866822e-06	-1.130008e-09	-3.693950e+01	-3.118621e+02
3.400000e-07	-6.848993e-06	-1.104728e-09	-3.684359e+01	-3.115038e+02
3.500000e-07	-6.830739e-06	-1.343738e-09	-3.674539e+01	-3.111359e+02
3.600000e-07	-6.812011e-06	-1.269725e-09	-3.664465e+01	-3.107574e+02
3.700000e-07	-6.792781e-06	-1.037380e-09	-3.654120e+01	-3.103675e+02
3.800000e-07	-6.773242e-06	-1.186086e-09	-3.643609e+01	-3.099652e+02
3.900000e-07	-6.753436e-06	-1.335866e-09	-3.632955e+01	-3.095496e+02
4.000000e-07	-6.733236e-06	-1.140122e-09	-3.622088e+01	-3.091200e+02
4.100000e-07	-6.712519e-06	-1.095596e-09	-3.610944e+01	-3.086755e+02
4.200000e-07	-6.691227e-06	-1.278006e-09	-3.599490e+01	-3.082155e+02
4.300000e-07	-6.669448e-06	-1.217894e-09	-3.587774e+01	-3.077394e+02
4.400000e-07	-6.647121e-06	-1.098868e-09	-3.575764e+01	-3.072467e+02
4.500000e-07	-6.624330e-06	-1.212749e-09	-3.563503e+01	-3.067371e+02
4.600000e-07	-6.601155e-06	-1.222928e-09	-3.551036e+01	-3.062102e+02
4.700000e-07	-6.577601e-06	-1.096913e-09	-3.538366e+01	-3.056659e+02
4.800000e-07	-6.553759e-06	-1.168580e-09	-3.525540e+01	-3.051043e+02
4.900000e-07	-6.529547e-06	-1.248989e-09	-3.512515e+01	-3.045255e+02
5.000000e-07	-6.504731e-06	-1.130139e-09	-3.499166e+01	-3.039296e+02
5.100000e-07	-6.479167e-06	-1.108329e-09	-3.485414e+01	-3.033171e+02
5.200000e-07	-6.452847e-06	-1.203641e-09	-3.471255e+01	-3.026885e+02
5.300000e-07	-6.425811e-06	-1.162024e-09	-3.456712e+01	-3.020441e+02
5.400000e-07	-6.398302e-06	-1.108472e-09	-3.441913e+01	-3.013848e+02
5.500000e-07	-6.370578e-06	-1.165361e-09	-3.426999e+01	-3.007110e+02
5.600000e-07	-6.342500e-06	-1.160497e-09	-3.411895e+01	-3.000236e+02
5.700000e-07	-6.313958e-06	-1.115376e-09	-3.396541e+01	-2.993233e+02
5.800000e-07	-6.284981e-06	-1.144515e-09	-3.380953e+01	-2.986108e+02
5.900000e-07	-6.255586e-06	-1.150016e-09	-3.365141e+01	-2.978868e+02
6.000000e-07	-6.225784e-06	-1.109839e-09	-3.349109e+01	-2.971520e+02
6.100000e-07	-6.195589e-06	-1.120930e-09	-3.332866e+01	-2.964071e+02
6.200000e-07	-6.164974e-06	-1.137697e-09	-3.316397e+01	-2.956526e+02
6.300000e-07	-6.133855e-06	-1.118089e-09	-3.299656e+01	-2.948889e+02
6.400000e-07	-6.102420e-06	-1.114022e-09	-3.282746e+01	-2.941166e+02
6.500000e-07	-6.070736e-06	-1.115644e-09	-3.265702e+01	-2.933357e+02
6.600000e-07	-6.038795e-06	-1.103022e-09	-3.248520e+01	-2.925465e+02
6.700000e-07	-6.006414e-06	-1.105682e-09	-3.231100e+01	-2.917490e+02
6.800000e-07	-5.973256e-06	-1.109369e-09	-3.213264e+01	-2.909431e+02
6.900000e-07	-5.939370e-06	-1.098035e-09	-3.195035e+01	-2.901285e+02
7.000000e-07	-5.904839e-06	-1.094125e-09	-3.176459e+01	-2.893048e+02
7.100000e-07	-5.869744e-06	-1.090330e-09	-3.157580e+01	-2.884717e+02
7.200000e-07	-5.834242e-06	-1.080787e-09	-3.138482e+01	-2.876284e+02
7.300000e-07	-5.798518e-06	-1.082506e-09	-3.119265e+01	-2.867742e+02
7.400000e-07	-5.762573e-06	-1.081060e-09	-3.099928e+01	-2.859083e+02
7.500000e-07	-5.726312e-06	-1.067933e-09	-3.080422e+01	-2.850299e+02
7.600000e-07	-5.689737e-06	-1.066835e-09	-3.060747e+01	-2.841380e+02
7.700000e-07	-5.652763e-06	-1.071141e-09	-3.040857e+01	-2.832315e+02
7.800000e-07	-5.615369e-06	-1.063098e-09	-3.020741e+01	-2.823094e+02
7.900000e-07	-5.577434e-06	-1.053191e-09	-3.000334e+01	-2.813706e+02
8.000000e-07	-5.538988e-06	-1.048900e-09	-2.979653e+01	-2.804141e+02
8.100000e-07	-5.500092e-06	-1.043676e-09	-2.958729e+01	-2.794389e+02
8.200000e-07	-5.460748e-06	-1.041919e-09	-2.937564e+01	-2.784440e+02
8.300000e-07	-5.421213e-06	-1.041213e-09	-2.916297e+01	-2.774284e+02
8.400000e-07	-5.381584e-06	-1.035099e-09	-2.894978e+01	-2.763912e+02
8.500000e-07	-5.341740e-06	-1.027860e-09	-2.873545e+01	-2.753318e+02
8.600000e-07	-5.301504e-06	-1.025095e-09	-2.851900e+01	-2.742493e+02
8.700000e-07	-5.260701e-06	-1.021950e-09	-2.829950e+01	-2.731433e+02
8.800000e-07	-5.219397e-06	-1.015925e-09	-2.807731e+01	-2.720132e+02
8.900000e-07	-5.177662e-06	-1.007555e-09	-2.785280e+01	-2.708586e+02
9.000000e-07	-5.135405e-06	-9.996363e-10	-2.762548e+01	-2.696795e+02
9.100000e-07	-5.092537e-06	-9.959711e-10	-2.739488e+01	-2.684756e+02
9.200000e-07	-5.049180e-06	-9.932286e-10	-2.716164e+01	-2.672469e+02
9.300000e-07	-5.005501e-06	-9.870171e-10	-2.692668e+01	-2.659935e+02
9.400000e-07	-4.961559e-06	-9.800328e-10	-2.669029e+01	-2.647157e+02
9.500000e-07	-4.917394e-06	-9.755096e-10	-2.645271e+01	-2.634137e+02
9.600000e-07	-4.872911e-06	-9.719497e-10	-2.621342e+01	-2.620879e+02
9.700000e-07	-4.828104e-06	-9.668374e-10	-2.597239e+01	-2.607387e+02
9.800000e-07	-4.782930e-06	-9.595321e-10	-2.572937e+01	-2.593665e+02
9.900000e-07	-4.737324e-06	-9.515217e-10	-2.548404e+01	-2.579720e+02
1.000000e-06	-4.691432e-06	-9.456586e-10	-2.523717e+01	-2.565556e+02
1.010000e-06	-4.645290e-06	-9.425907e-10	-2.498895e+01	-2.551178e+02
1.020000e-06	-4.598672e-06	-9.379712e-10	-2.473817e+01	-2.536593e+02
1.030000e-06	-4.551738e-06	-9.305425e-10	-2.448569e+01	-2.521803e+02
1.040000e-06	-4.504658e-06	-9.230860e-10	-2.423243e+01	-2.506814e+02
1.050000e-06	-4.457245e-06	-9.184802e-10	-2.397738e+01	-2.491630e+02
1.060000e-06	-4.409577e-06	-9.143940e-10	-2.372095e+01	-2.476254e+02
1.070000e-06	-4.361759e-06	-9.093822e-10	-2.346372e+01	-2.460687e+02
1.080000e-06	-4.313623e-06	-9.031376e-10	-2.320478e+01	-2.444931e+02
1.090000e-06	-4.264858e-06	-8.963097e-10	-2.294245e+01	-2.428987e+02
1.100000e-06	-4.215595e-06	-8.894796e-10	-2.267744e+01	-2.412854e+02
1.110000e-06	-4.166019e-06	-8.834101e-10	-2.241075e+01	-2.396530e+02
1.120000e-06	-4.115932e-06	-8.772833e-10	-2.214131e+01	-2.380012e+02
1.130000e-06	-4.065332e-06	-8.701846e-10	-2.186911e+01	-2.363296e+02
1.140000e-06	-4.014421e-06	-8.628177e-10	-2.159524e+01	-2.346379e+02
1.150000e-06	-3.963263e-06	-8.569581e-10	-2.132004e+01	-2.329254e+02
1.160000e-06	-3.911827e-06	-8.518122e-10	-2.104335e+01	-2.311915e+02
1.170000e-06	-3.860065e-06	-8.455040e-10	-2.076490e+01	-2.294356e+02
1.180000e-06	-3.807925e-06	-8.384775e-10	-2.048442e+01	-2.276568e+02
1.190000e-06	-3.755481e-06	-8.308954e-10	-2.020230e+01	-2.258543e+02
1.200000e-06	-3.702725e-06	-8.232528e-10	-1.991850e+01	-2.240274e+02
1.210000e-06	-3.649663e-06	-8.162998e-10	-1.963306e+01	-2.221751e+02
1.220000e-06	-3.596293e-06	-8.089227e-10	-1.934596e+01	-2.202967e+02
1.230000e-06	-3.542757e-06	-8.011818e-10	-1.905797e+01	-2.183912e+02
1.240000e-06	-3.489071e-06	-7.931591e-10	-1.876917e+01	-2.164579e+02
1.250000e-06	-3.435062e-06	-7.861716e-10	-1.847863e+01	-2.144961e+02
1.260000e-06	-3.380806e-06	-7.816417e-10	-1.818676e+01	-2.125049e+02
1.270000e-06	-3.326474e-06	-7.748348e-10	-1.789449e+01	-2.104839e+02
1.280000e-06	-3.272029e-06	-7.643214e-10	-1.760161e+01	-2.084323e+02
1.290000e-06	-3.217218e-06	-7.547492e-10	-1.730676e+01	-2.063498e+02
1.300000e-06	-3.162155e-06	-7.481423e-10	-1.701055e+01	-2.042358e+02
1.310000e-06	-3.106958e-06	-7.406225e-10	-1.671362e+01	-2.020903e+02
1.320000e-06	-3.051466e-06	-7.317932e-10	-1.641511e+01	-1.999128e+02
1.330000e-06	-2.995812e-06	-7.231419e-10	-1.611572e+01	-1.977034e+02
1.340000e-06	-2.940114e-06	-7.133933e-10	-1.581610e+01	-1.954620e+02
1.350000e-06	-2.884229e-06	-7.037138e-10	-1.551547e+01	-1.931887e+02
1.360000e-06	-2.828201e-06	-6.956900e-10	-1.521407e+01	-1.908837e+02
1.370000e-06	-2.771944e-06	-6.876585e-10	-1.491144e+01	-1.885473e+02
1.380000e-06	-2.715407e-06	-6.796447e-10	-1.460731e+01	-1.861797e+02
1.390000e-06	-2.658672e-06	-6.717825e-10	-1.430211e+01	-1.837813e+02
1.400000e-06	-2.601703e-06	-6.634494e-10	-1.399565e+01	-1.813526e+02
1.410000e-06	-2.544569e-06	-6.529515e-10	-1.368830e+01	-1.788940e+02
1.420000e-06	-2.487138e-06	-6.413479e-10	-1.337935e+01	-1.764060e+02
1.430000e-06	-2.429367e-06	-6.318525e-10	-1.306858e+01	-1.738891e+02
1.440000e-06	-2.371310e-06	-6.235647e-10	-1.275627e+01	-1.713437e+02
1.450000e-06	-2.313071e-06	-6.153162e-10	-1.244297e+01	-1.687703e+02
1.460000e-06	-2.254676e-06	-6.066482e-10	-1.212884e+01	-1.661693e+02
1.470000e-06	-2.196029e-06	-5.960760e-10	-1.181335e+01	-1.635411e+02
1.480000e-06	-2.137193e-06	-5.840647e-10	-1.149685e+01	-1.608859e+02
1.490000e-06	-2.078219e-06	-5.725609e-10	-1.117961e+01	-1.582039e+02
1.500000e-06	-2.019003e-06	-5.625444e-10	-1.086106e+01	-1.554953e+02
1.510000e-06	-1.959566e-06	-5.530800e-10	-1.054132e+01	-1.527600e+02
1.520000e-06	-1.900108e-06	-5.431402e-10	-1.022147e+01	-1.499980e+02
1.530000e-06	-1.840631e-06	-5.341451e-10	-9.901520e+00	-1.472091e+02
1.540000e-06	-1.781094e-06	-5.247424e-10	-9.581249e+00	-1.443929e+02
1.550000e-06	-1.721421e-06	-5.133287e-10	-9.260240e+00	-1.415489e+02
1.560000e-06	-1.661675e-06	-5.016744e-10	-8.938845e+00	-1.386767e+02
1.570000e-06	-1.601889e-06	-4.908503e-10	-8.617230e+00	-1.357755e+02
1.580000e-06	-1.542046e-06	-4.807839e-10	-8.295308e+00	-1.328445e+02
1.590000e-06	-1.482169e-06	-4.707670e-10	-7.973204e+00	-1.298829e+02
1.600000e-06	-1.422024e-06	-4.597710e-10	-7.649662e+00	-1.268895e+02
1.610000e-06	-1.361679e-06	-4.478292e-10	-7.325037e+00	-1.238634e+02
1.620000e-06	-1.301292e-06	-4.351860e-10	-7.000193e+00	-1.208033e+02
1.630000e-06	-1.240774e-06	-4.230341e-10	-6.674643e+00	-1.177080e+02
1.640000e-06	-1.180188e-06	-4.119048e-10	-6.348721e+00	-1.145762e+02
1.650000e-06	-1.119623e-06	-4.008430e-10	-6.022916e+00	-1.114067e+02
1.660000e-06	-1.059062e-06	-3.894905e-10	-5.697139e+00	-1.081980e+02
1.670000e-06	-9.984135e-07	-3.784972e-10	-5.370882e+00	-1.049489e+02
1.680000e-06	-9.376261e-07	-3.666987e-10	-5.043882e+00	-1.016580e+02
1.690000e-06	-8.767964e-07	-3.530357e-10	-4.716653e+00	-9.832408e+01
1.700000e-06	-8.159152e-07	-3.397572e-10	-4.389148e+00	-9.494599e+01
1.710000e-06	-7.549979e-07	-3.279283e-10	-4.061448e+00	-9.152261e+01
1.720000e-06	-6.940240e-07	-3.163589e-10	-3.733444e+00	-8.805291e+01
1.730000e-06	-6.329567e-07	-3.048636e-10	-3.404938e+00	-8.453603e+01
1.740000e-06	-5.718666e-07	-2.926921e-10	-3.076309e+00	-8.097122e+01
1.750000e-06	-5.106949e-07	-2.791652e-10	-2.747240e+00	-7.735791e+01
1.760000e-06	-4.495336e-07	-2.654078e-10	-2.418229e+00	-7.369569e+01
1.770000e-06	-3.883887e-07	-2.520848e-10	-2.089305e+00	-6.998435e+01
1.780000e-06	-3.271902e-07	-2.392048e-10	-1.760093e+00	-6.622389e+01
1.790000e-06	-2.660779e-07	-2.260947e-10	-1.431344e+00	-6.241451e+01
1.800000e-06	-2.049283e-07	-2.117778e-10	-1.102395e+00	-5.855665e+01
1.810000e-06	-1.436842e-07	-1.964390e-10	-7.729372e-01	-5.465100e+01
1.820000e-06	-8.253929e-08	-1.813693e-10	-4.440132e-01	-5.069846e+01
1.830000e-06	-2.141763e-08	-1.664261e-10	-1.152144e-01	-4.670019e+01
1.840000e-06	3.982479e-08	-1.509813e-10	2.142342e-01	-4.265761e+01
1.850000e-06	1.011006e-07	-1.356166e-10	5.438621e-01	-3.857237e+01
1.860000e-06	1.623662e-07	-1.211648e-10	8.734354e-01	-3.444637e+01
1.870000e-06	2.236394e-07	-1.076079e-10	1.203050e+00	-3.028175e+01
1.880000e-06	2.849263e-07	-9.371200e-11	1.532737e+00	-2.608088e+01
1.890000e-06	3.462503e-07	-7.824740e-11	1.862624e+00	-2.184636e+01
1.900000e-06	4.075571e-07	-6.230217e-11	2.192420e+00	-1.758098e+01
1.910000e-06	4.687131e-07	-4.640103e-11	2.521403e+00	-1.328775e+01
1.920000e-06	5.297846e-07	-3.118217e-11	2.849932e+00	-8.969837e+00
1.930000e-06	5.908636e-07	-1.719993e-11	3.178502e+00	-4.630586e+00
1.940000e-06	6.518528e-07	-3.061105e-12	3.506588e+00	-2.734804e-01
1.950000e-06	7.127243e-07	1.260134e-11	3.834041e+00	4.097875e+00
1.960000e-06	7.736111e-07	2.897601e-11	4.161577e+00	8.479774e+00
1.970000e-06	8.344776e-07	4.465552e-11	4.489003e+00	1.286843e+01
1.980000e-06	8.951871e-07	5.981717e-11	4.815585e+00	1.726002e+01
1.990000e-06	9.558567e-07	7.498705e-11	5.141952e+00	2.165066e+01
2.000000e-06	1.016530e-06	9.053542e-11	5.468337e+00	2.603650e+01
2.010000e-06	1.077149e-06	1.055331e-10	5.794435e+00	3.041367e+01
2.020000e-06	1.137646e-06	1.208557e-10	6.119871e+00	3.477838e+01
2.030000e-06	1.198094e-06	1.372586e-10	6.445047e+00	3.912688e+01
2.040000e-06	1.258566e-06	1.534902e-10	6.770351e+00	4.345553e+01
2.050000e-06	1.318928e-06	1.688758e-10	7.095062e+00	4.776080e+01
2.060000e-06	1.379083e-06	1.835608e-10	7.418662e+00	5.203928e+01
2.070000e-06	1.439117e-06	1.981854e-10	7.741609e+00	5.628774e+01
2.080000e-06	1.499135e-06	2.125255e-10	8.064470e+00	6.050309e+01
2.090000e-06	1.559071e-06	2.268986e-10	8.386893e+00	6.468245e+01
2.100000e-06	1.618897e-06	2.414659e-10	8.708724e+00	6.882312e+01
2.110000e-06	1.678668e-06	2.561196e-10	9.030254e+00	7.292264e+01
2.120000e-06	1.738389e-06	2.707088e-10	9.351517e+00	7.697874e+01
2.130000e-06	1.798004e-06	2.850517e-10	9.672215e+00	8.098939e+01
2.140000e-06	1.857498e-06	2.994769e-10	9.992257e+00	8.495281e+01
2.150000e-06	1.916831e-06	3.134514e-10	1.031143e+01	8.886743e+01
2.160000e-06	1.976021e-06	3.279524e-10	1.062984e+01	9.273193e+01
2.170000e-06	2.035119e-06	3.423589e-10	1.094775e+01	9.654521e+01
2.180000e-06	2.094080e-06	3.554825e-10	1.126493e+01	1.003064e+02
2.190000e-06	2.152868e-06	3.679999e-10	1.158117e+01	1.040149e+02
2.200000e-06	2.211419e-06	3.805008e-10	1.189614e+01	1.076702e+02
2.210000e-06	2.269831e-06	3.936423e-10	1.221037e+01	1.112722e+02
2.220000e-06	2.328045e-06	4.076046e-10	1.252352e+01	1.148207e+02
2.230000e-06	2.386033e-06	4.213480e-10	1.283547e+01	1.183160e+02
2.240000e-06	2.443820e-06	4.349037e-10	1.314633e+01	1.217582e+02
2.250000e-06	2.501405e-06	4.488909e-10	1.345610e+01	1.251480e+02
2.260000e-06	2.558661e-06	4.610415e-10	1.376410e+01	1.284858e+02
2.270000e-06	2.615510e-06	4.710604e-10	1.406992e+01	1.317724e+02
2.280000e-06	2.672098e-06	4.813075e-10	1.437433e+01	1.350086e+02
2.290000e-06	2.728435e-06	4.922159e-10	1.467739e+01	1.381952e+02
2.300000e-06	2.784659e-06	5.032709e-10	1.497984e+01	1.413332e+02
2.310000e-06	2.840611e-06	5.156164e-10	1.528083e+01	1.444237e+02
2.320000e-06	2.896294e-06	5.290277e-10	1.558037e+01	1.474676e+02
2.330000e-06	2.951860e-06	5.429252e-10	1.587928e+01	1.504659e+02
2.340000e-06	3.007270e-06	5.555492e-10	1.617736e+01	1.534199e+02
2.350000e-06	3.062518e-06	5.657305e-10	1.647456e+01	1.563305e+02
2.360000e-06	3.117549e-06	5.748189e-10	1.677060e+01	1.591989e+02
2.370000e-06	3.172480e-06	5.826349e-10	1.706609e+01	1.620260e+02
2.380000e-06	3.227323e-06	5.898341e-10	1.736111e+01	1.648128e+02
2.390000e-06	3.281991e-06	5.987348e-10	1.765520e+01	1.675604e+02
2.400000e-06	3.336421e-06	6.104780e-10	1.794800e+01	1.702697e+02
2.410000e-06	3.390569e-06	6.232761e-10	1.823929e+01	1.729416e+02
2.420000e-06	3.444489e-06	6.357123e-10	1.852934e+01	1.755769e+02
2.430000e-06	3.498180e-06	6.473703e-10	1.881817e+01	1.781764e+02
2.440000e-06	3.551570e-06	6.571094e-10	1.910538e+01	1.807409e+02
2.450000e-06	3.604728e-06	6.655360e-10	1.939133e+01	1.832711e+02
2.460000e-06	3.657650e-06	6.733499e-10	1.967602e+01	1.857676e+02
2.470000e-06	3.710244e-06	6.812147e-10	1.995895e+01	1.882310e+02
2.480000e-06	3.762493e-06	6.897824e-10	2.024002e+01	1.906620e+02
2.490000e-06	3.814524e-06	6.990023e-10	2.051992e+01	1.930611e+02
2.500000e-06	3.866306e-06	7.088092e-10	2.079847e+01	1.954287e+02
2.510000e-06	3.917707e-06	7.181421e-10	2.107498e+01	1.977653e+02
2.520000e-06	3.968717e-06	7.269614e-10	2.134938e+01	2.000714e+02
2.530000e-06	4.019368e-06	7.355436e-10	2.162186e+01	2.023474e+02
2.540000e-06	4.069665e-06	7.427324e-10	2.189242e+01	2.045936e+02
2.550000e-06	4.119598e-06	7.495447e-10	2.216104e+01	2.068105e+02
2.560000e-06	4.169224e-06	7.572372e-10	2.242800e+01	2.089984e+02
2.570000e-06	4.218451e-06	7.642542e-10	2.269281e+01	2.111576e+02
2.580000e-06	4.267271e-06	7.713913e-10	2.295543e+01	2.132884e+02
2.590000e-06	4.315554e-06	7.791385e-10	2.321517e+01	2.153912e+02
2.600000e-06	4.363322e-06	7.873250e-10	2.347213e+01	2.174662e+02
2.610000e-06	4.410883e-06	7.964407e-10	2.372798e+01	2.195138e+02
2.620000e-06	4.458287e-06	8.061255e-10	2.398298e+01	2.215341e+02
2.630000e-06	4.505477e-06	8.145922e-10	2.423684e+01	2.235274e+02
2.640000e-06	4.552273e-06	8.218943e-10	2.448858e+01	2.254939e+02
2.650000e-06	4.598710e-06	8.300258e-10	2.473838e+01	2.274339e+02
2.660000e-06	4.644917e-06	8.373433e-10	2.498694e+01	2.293475e+02
2.670000e-06	4.690719e-06	8.423564e-10	2.523333e+01	2.312350e+02
2.680000e-06	4.736126e-06	8.468324e-10	2.547760e+01	2.330965e+02
2.690000e-06	4.781312e-06	8.521809e-10	2.572067e+01	2.349321e+02
2.700000e-06	4.826294e-06	8.584966e-10	2.596265e+01	2.367419e+02
2.710000e-06	4.870938e-06	8.661330e-10	2.620280e+01	2.385262e+02
2.720000e-06	4.915230e-06	8.748875e-10	2.644107e+01	2.402849e+02
2.730000e-06	4.959187e-06	8.838298e-10	2.667753e+01	2.420181e+02
2.740000e-06	5.002899e-06	8.920727e-10	2.691268e+01	2.437260e+02
2.750000e-06	5.046359e-06	8.980152e-10	2.714647e+01	2.454087e+02
2.760000e-06	5.089559e-06	9.021254e-10	2.737886e+01	2.470660e+02
2.770000e-06	5.132524e-06	9.066681e-10	2.760998e+01	2.486983e+02
2.780000e-06	5.174965e-06	9.131836e-10	2.783829e+01	2.503054e+02
2.790000e-06	5.216803e-06	9.217038e-10	2.806336e+01	2.518875e+02
2.800000e-06	5.258122e-06	9.299351e-10	2.828563e+01	2.534447e+02
2.810000e-06	5.298862e-06	9.369822e-10	2.850479e+01	2.549772e+02
2.820000e-06	5.339038e-06	9.438229e-10	2.872091e+01	2.564849e+02
2.830000e-06	5.378845e-06	9.503988e-10	2.893505e+01	2.579681e+02
2.840000e-06	5.418411e-06	9.561854e-10	2.914789e+01	2.594270e+02
2.850000e-06	5.457678e-06	9.614493e-10	2.935912e+01	2.608618e+02
2.860000e-06	5.496681e-06	9.664152e-10	2.956894e+01	2.622728e+02
2.870000e-06	5.535358e-06	9.713242e-10	2.977700e+01	2.636602e+02
2.880000e-06	5.573558e-06	9.764326e-10	2.998249e+01	2.650245e+02
2.890000e-06	5.611289e-06	9.817122e-10	3.018546e+01	2.663659e+02
2.900000e-06	5.648580e-06	9.870452e-10	3.038607e+01	2.676849e+02
