# Temperatura_=_-25.1
# Concentracion g/m^3_=_7400.0
# C_Vs_to_Am_M_A/Vsm_=_254322799225.57578
# pendiente_HvsI_1/m_=_3716.3
# ordenada_HvsI_A/m_=_1297.0
# frecuencia_Hz_=_136119.12785759266

Tiempo_(s)	Campo_(V.s)	Magnetizacion_(V.s)	Campo_(kA/m)	Magnetizacion_(A/m)
0.000000e+00	-7.101389e-06	-1.235601e-09	-3.842927e+01	-3.134815e+02
1.000000e-08	-7.101585e-06	-1.235963e-09	-3.843033e+01	-3.134848e+02
2.000000e-08	-7.101362e-06	-1.235893e-09	-3.842912e+01	-3.134717e+02
3.000000e-08	-7.100532e-06	-1.234904e-09	-3.842464e+01	-3.134418e+02
4.000000e-08	-7.098977e-06	-1.233000e-09	-3.841622e+01	-3.133947e+02
5.000000e-08	-7.096683e-06	-1.231323e-09	-3.840380e+01	-3.133303e+02
6.000000e-08	-7.093768e-06	-1.230996e-09	-3.838803e+01	-3.132484e+02
7.000000e-08	-7.090435e-06	-1.232596e-09	-3.836999e+01	-3.131489e+02
8.000000e-08	-7.086680e-06	-1.231179e-09	-3.834967e+01	-3.130318e+02
9.000000e-08	-7.082231e-06	-1.222391e-09	-3.832560e+01	-3.128974e+02
1.000000e-07	-7.077029e-06	-1.214527e-09	-3.829744e+01	-3.127457e+02
1.100000e-07	-7.071433e-06	-1.222558e-09	-3.826716e+01	-3.125772e+02
1.200000e-07	-7.065616e-06	-1.231759e-09	-3.823569e+01	-3.123923e+02
1.300000e-07	-7.059256e-06	-1.227437e-09	-3.820127e+01	-3.121915e+02
1.400000e-07	-7.052300e-06	-1.223354e-09	-3.816362e+01	-3.119754e+02
1.500000e-07	-7.044955e-06	-1.223153e-09	-3.812388e+01	-3.117447e+02
1.600000e-07	-7.037383e-06	-1.223071e-09	-3.808290e+01	-3.115003e+02
1.700000e-07	-7.029410e-06	-1.217272e-09	-3.803976e+01	-3.112428e+02
1.800000e-07	-7.020733e-06	-1.210500e-09	-3.799280e+01	-3.109732e+02
1.900000e-07	-7.011327e-06	-1.207362e-09	-3.794190e+01	-3.106924e+02
2.000000e-07	-7.001310e-06	-1.209113e-09	-3.788769e+01	-3.104011e+02
2.100000e-07	-6.990746e-06	-1.218135e-09	-3.783052e+01	-3.101003e+02
2.200000e-07	-6.979491e-06	-1.216975e-09	-3.776962e+01	-3.097908e+02
2.300000e-07	-6.967629e-06	-1.201106e-09	-3.770543e+01	-3.094734e+02
2.400000e-07	-6.955437e-06	-1.195276e-09	-3.763945e+01	-3.091489e+02
2.500000e-07	-6.942754e-06	-1.210506e-09	-3.757082e+01	-3.088178e+02
2.600000e-07	-6.929343e-06	-1.213070e-09	-3.749824e+01	-3.084808e+02
2.700000e-07	-6.915295e-06	-1.193720e-09	-3.742222e+01	-3.081383e+02
2.800000e-07	-6.900604e-06	-1.189013e-09	-3.734272e+01	-3.077908e+02
2.900000e-07	-6.885204e-06	-1.205217e-09	-3.725938e+01	-3.074383e+02
3.000000e-07	-6.869206e-06	-1.201595e-09	-3.717281e+01	-3.070812e+02
3.100000e-07	-6.852702e-06	-1.180799e-09	-3.708350e+01	-3.067193e+02
3.200000e-07	-6.835651e-06	-1.187295e-09	-3.699123e+01	-3.063526e+02
3.300000e-07	-6.818275e-06	-1.201046e-09	-3.689720e+01	-3.059809e+02
3.400000e-07	-6.800636e-06	-1.189401e-09	-3.680174e+01	-3.056039e+02
3.500000e-07	-6.782392e-06	-1.179895e-09	-3.670301e+01	-3.052211e+02
3.600000e-07	-6.763536e-06	-1.189705e-09	-3.660097e+01	-3.048321e+02
3.700000e-07	-6.744272e-06	-1.181099e-09	-3.649673e+01	-3.044363e+02
3.800000e-07	-6.724675e-06	-1.164024e-09	-3.639068e+01	-3.040330e+02
3.900000e-07	-6.704754e-06	-1.176612e-09	-3.628287e+01	-3.036217e+02
4.000000e-07	-6.684383e-06	-1.185275e-09	-3.617264e+01	-3.032016e+02
4.100000e-07	-6.663464e-06	-1.164902e-09	-3.605943e+01	-3.027720e+02
4.200000e-07	-6.641976e-06	-1.163237e-09	-3.594315e+01	-3.023324e+02
4.300000e-07	-6.620022e-06	-1.180734e-09	-3.582435e+01	-3.018820e+02
4.400000e-07	-6.597721e-06	-1.166830e-09	-3.570367e+01	-3.014202e+02
4.500000e-07	-6.574855e-06	-1.148244e-09	-3.557992e+01	-3.009465e+02
4.600000e-07	-6.551436e-06	-1.162009e-09	-3.545319e+01	-3.004604e+02
4.700000e-07	-6.527746e-06	-1.165252e-09	-3.532499e+01	-2.999616e+02
4.800000e-07	-6.503668e-06	-1.145872e-09	-3.519470e+01	-2.994496e+02
4.900000e-07	-6.479133e-06	-1.148237e-09	-3.506193e+01	-2.989244e+02
5.000000e-07	-6.454275e-06	-1.155714e-09	-3.492740e+01	-2.983858e+02
5.100000e-07	-6.428828e-06	-1.140302e-09	-3.478969e+01	-2.978337e+02
5.200000e-07	-6.402466e-06	-1.136345e-09	-3.464704e+01	-2.972683e+02
5.300000e-07	-6.375361e-06	-1.146819e-09	-3.450036e+01	-2.966896e+02
5.400000e-07	-6.347796e-06	-1.136417e-09	-3.435119e+01	-2.960979e+02
5.500000e-07	-6.319885e-06	-1.125987e-09	-3.420015e+01	-2.954936e+02
5.600000e-07	-6.291693e-06	-1.135880e-09	-3.404759e+01	-2.948769e+02
5.700000e-07	-6.263159e-06	-1.134299e-09	-3.389318e+01	-2.942482e+02
5.800000e-07	-6.234107e-06	-1.120156e-09	-3.373596e+01	-2.936080e+02
5.900000e-07	-6.204535e-06	-1.120943e-09	-3.357593e+01	-2.929567e+02
6.000000e-07	-6.174605e-06	-1.123147e-09	-3.341397e+01	-2.922946e+02
6.100000e-07	-6.144284e-06	-1.114598e-09	-3.324989e+01	-2.916222e+02
6.200000e-07	-6.113399e-06	-1.112991e-09	-3.308275e+01	-2.909397e+02
6.300000e-07	-6.082169e-06	-1.114387e-09	-3.291375e+01	-2.902474e+02
6.400000e-07	-6.050752e-06	-1.106331e-09	-3.274373e+01	-2.895455e+02
6.500000e-07	-6.019008e-06	-1.101415e-09	-3.257195e+01	-2.888341e+02
6.600000e-07	-5.986949e-06	-1.102231e-09	-3.239846e+01	-2.881131e+02
6.700000e-07	-5.954425e-06	-1.096239e-09	-3.222246e+01	-2.873823e+02
6.800000e-07	-5.921296e-06	-1.088334e-09	-3.204318e+01	-2.866417e+02
6.900000e-07	-5.887448e-06	-1.085555e-09	-3.186001e+01	-2.858906e+02
7.000000e-07	-5.852826e-06	-1.082477e-09	-3.167266e+01	-2.851287e+02
7.100000e-07	-5.817697e-06	-1.078033e-09	-3.148255e+01	-2.843553e+02
7.200000e-07	-5.782226e-06	-1.075124e-09	-3.129060e+01	-2.835696e+02
7.300000e-07	-5.746557e-06	-1.071772e-09	-3.109758e+01	-2.827708e+02
7.400000e-07	-5.710676e-06	-1.068450e-09	-3.090341e+01	-2.819580e+02
7.500000e-07	-5.674349e-06	-1.067188e-09	-3.070683e+01	-2.811301e+02
7.600000e-07	-5.637542e-06	-1.064740e-09	-3.050764e+01	-2.802860e+02
7.700000e-07	-5.600416e-06	-1.059535e-09	-3.030673e+01	-2.794245e+02
7.800000e-07	-5.562941e-06	-1.054551e-09	-3.010394e+01	-2.785445e+02
7.900000e-07	-5.524972e-06	-1.049989e-09	-2.989847e+01	-2.776449e+02
8.000000e-07	-5.486498e-06	-1.045170e-09	-2.969026e+01	-2.767244e+02
8.100000e-07	-5.447595e-06	-1.040972e-09	-2.947974e+01	-2.757820e+02
8.200000e-07	-5.408321e-06	-1.036621e-09	-2.926721e+01	-2.748166e+02
8.300000e-07	-5.368830e-06	-1.032049e-09	-2.905350e+01	-2.738272e+02
8.400000e-07	-5.329163e-06	-1.028840e-09	-2.883885e+01	-2.728129e+02
8.500000e-07	-5.289205e-06	-1.025169e-09	-2.862261e+01	-2.717730e+02
8.600000e-07	-5.248915e-06	-1.019240e-09	-2.840458e+01	-2.707068e+02
8.700000e-07	-5.208237e-06	-1.012761e-09	-2.818445e+01	-2.696138e+02
8.800000e-07	-5.167114e-06	-1.007123e-09	-2.796191e+01	-2.684938e+02
8.900000e-07	-5.125376e-06	-1.001685e-09	-2.773605e+01	-2.673465e+02
9.000000e-07	-5.083000e-06	-9.959378e-10	-2.750673e+01	-2.661719e+02
9.100000e-07	-5.040048e-06	-9.900903e-10	-2.727429e+01	-2.649701e+02
9.200000e-07	-4.996649e-06	-9.846908e-10	-2.703944e+01	-2.637413e+02
9.300000e-07	-4.953047e-06	-9.800581e-10	-2.680349e+01	-2.624861e+02
9.400000e-07	-4.909209e-06	-9.758162e-10	-2.656625e+01	-2.612049e+02
9.500000e-07	-4.865024e-06	-9.704626e-10	-2.632715e+01	-2.598985e+02
9.600000e-07	-4.820491e-06	-9.639462e-10	-2.608616e+01	-2.585675e+02
9.700000e-07	-4.775655e-06	-9.570664e-10	-2.584353e+01	-2.572128e+02
9.800000e-07	-4.730635e-06	-9.497645e-10	-2.559990e+01	-2.558353e+02
9.900000e-07	-4.685297e-06	-9.435644e-10	-2.535455e+01	-2.544359e+02
1.000000e-06	-4.639499e-06	-9.387157e-10	-2.510671e+01	-2.530156e+02
1.010000e-06	-4.593332e-06	-9.337179e-10	-2.485688e+01	-2.515753e+02
1.020000e-06	-4.546949e-06	-9.287750e-10	-2.460588e+01	-2.501158e+02
1.030000e-06	-4.500276e-06	-9.235307e-10	-2.435331e+01	-2.486380e+02
1.040000e-06	-4.453241e-06	-9.173281e-10	-2.409878e+01	-2.471426e+02
1.050000e-06	-4.405871e-06	-9.117198e-10	-2.384244e+01	-2.456303e+02
1.060000e-06	-4.358174e-06	-9.067581e-10	-2.358433e+01	-2.441015e+02
1.070000e-06	-4.310293e-06	-9.011001e-10	-2.332521e+01	-2.425567e+02
1.080000e-06	-4.262211e-06	-8.945947e-10	-2.306502e+01	-2.409961e+02
1.090000e-06	-4.213729e-06	-8.876733e-10	-2.280265e+01	-2.394198e+02
1.100000e-06	-4.164759e-06	-8.810125e-10	-2.253766e+01	-2.378277e+02
1.110000e-06	-4.115417e-06	-8.745168e-10	-2.227064e+01	-2.362195e+02
1.120000e-06	-4.065715e-06	-8.677826e-10	-2.200168e+01	-2.345948e+02
1.130000e-06	-4.015631e-06	-8.609390e-10	-2.173064e+01	-2.329532e+02
1.140000e-06	-3.964948e-06	-8.546104e-10	-2.145637e+01	-2.312940e+02
1.150000e-06	-3.913792e-06	-8.488584e-10	-2.117954e+01	-2.296162e+02
1.160000e-06	-3.862403e-06	-8.420475e-10	-2.090145e+01	-2.279191e+02
1.170000e-06	-3.810789e-06	-8.343684e-10	-2.062214e+01	-2.262015e+02
1.180000e-06	-3.758913e-06	-8.268122e-10	-2.034141e+01	-2.244624e+02
1.190000e-06	-3.706673e-06	-8.196393e-10	-2.005872e+01	-2.227006e+02
1.200000e-06	-3.654187e-06	-8.129680e-10	-1.977469e+01	-2.209149e+02
1.210000e-06	-3.601411e-06	-8.064279e-10	-1.948909e+01	-2.191042e+02
1.220000e-06	-3.548328e-06	-7.991050e-10	-1.920183e+01	-2.172673e+02
1.230000e-06	-3.495029e-06	-7.908187e-10	-1.891340e+01	-2.154030e+02
1.240000e-06	-3.441588e-06	-7.828473e-10	-1.862421e+01	-2.135103e+02
1.250000e-06	-3.387941e-06	-7.759325e-10	-1.833389e+01	-2.115883e+02
1.260000e-06	-3.333973e-06	-7.681798e-10	-1.804184e+01	-2.096360e+02
1.270000e-06	-3.279638e-06	-7.591618e-10	-1.774781e+01	-2.076526e+02
1.280000e-06	-3.225079e-06	-7.509912e-10	-1.745256e+01	-2.056375e+02
1.290000e-06	-3.170380e-06	-7.434030e-10	-1.715656e+01	-2.035903e+02
1.300000e-06	-3.115448e-06	-7.360617e-10	-1.685929e+01	-2.015106e+02
1.310000e-06	-3.060410e-06	-7.285172e-10	-1.656145e+01	-1.993981e+02
1.320000e-06	-3.005220e-06	-7.205599e-10	-1.626279e+01	-1.972529e+02
1.330000e-06	-2.949756e-06	-7.120716e-10	-1.596265e+01	-1.950750e+02
1.340000e-06	-2.894148e-06	-7.026778e-10	-1.566173e+01	-1.928646e+02
1.350000e-06	-2.838415e-06	-6.936080e-10	-1.536013e+01	-1.906221e+02
1.360000e-06	-2.782524e-06	-6.849605e-10	-1.505767e+01	-1.883480e+02
1.370000e-06	-2.726531e-06	-6.763319e-10	-1.475466e+01	-1.860427e+02
1.380000e-06	-2.670406e-06	-6.680848e-10	-1.445094e+01	-1.837070e+02
1.390000e-06	-2.614211e-06	-6.596088e-10	-1.414684e+01	-1.813416e+02
1.400000e-06	-2.557683e-06	-6.505861e-10	-1.384094e+01	-1.789471e+02
1.410000e-06	-2.500850e-06	-6.414947e-10	-1.353339e+01	-1.765242e+02
1.420000e-06	-2.444035e-06	-6.328524e-10	-1.322593e+01	-1.740738e+02
1.430000e-06	-2.387073e-06	-6.239840e-10	-1.291768e+01	-1.715964e+02
1.440000e-06	-2.329757e-06	-6.138699e-10	-1.260751e+01	-1.690927e+02
1.450000e-06	-2.272042e-06	-6.032101e-10	-1.229519e+01	-1.665631e+02
1.460000e-06	-2.214069e-06	-5.927294e-10	-1.198146e+01	-1.640083e+02
1.470000e-06	-2.155814e-06	-5.823270e-10	-1.166622e+01	-1.614283e+02
1.480000e-06	-2.097189e-06	-5.726408e-10	-1.134897e+01	-1.588235e+02
1.490000e-06	-2.038331e-06	-5.633894e-10	-1.103046e+01	-1.561939e+02
1.500000e-06	-1.979357e-06	-5.536835e-10	-1.071132e+01	-1.535393e+02
1.510000e-06	-1.920265e-06	-5.433987e-10	-1.039154e+01	-1.508596e+02
1.520000e-06	-1.861026e-06	-5.331219e-10	-1.007097e+01	-1.481541e+02
1.530000e-06	-1.801582e-06	-5.233878e-10	-9.749288e+00	-1.454224e+02
1.540000e-06	-1.742060e-06	-5.132174e-10	-9.427183e+00	-1.426637e+02
1.550000e-06	-1.682487e-06	-5.025659e-10	-9.104804e+00	-1.398771e+02
1.560000e-06	-1.622829e-06	-4.920722e-10	-8.781961e+00	-1.370615e+02
1.570000e-06	-1.563139e-06	-4.815508e-10	-8.458948e+00	-1.342158e+02
1.580000e-06	-1.503340e-06	-4.709587e-10	-8.135348e+00	-1.313388e+02
1.590000e-06	-1.443425e-06	-4.598458e-10	-7.811113e+00	-1.284291e+02
1.600000e-06	-1.383461e-06	-4.485630e-10	-7.486618e+00	-1.254852e+02
1.610000e-06	-1.323484e-06	-4.376248e-10	-7.162052e+00	-1.225059e+02
1.620000e-06	-1.263488e-06	-4.266793e-10	-6.837386e+00	-1.194895e+02
1.630000e-06	-1.203447e-06	-4.157233e-10	-6.512473e+00	-1.164346e+02
1.640000e-06	-1.143290e-06	-4.041111e-10	-6.186933e+00	-1.133398e+02
1.650000e-06	-1.083037e-06	-3.918464e-10	-5.860870e+00	-1.102038e+02
1.660000e-06	-1.022728e-06	-3.798217e-10	-5.534509e+00	-1.070252e+02
1.670000e-06	-9.623897e-07	-3.686113e-10	-5.207986e+00	-1.038028e+02
1.680000e-06	-9.019999e-07	-3.573133e-10	-4.881186e+00	-1.005356e+02
1.690000e-06	-8.415243e-07	-3.443784e-10	-4.553921e+00	-9.722265e+01
1.700000e-06	-7.809830e-07	-3.314248e-10	-4.226301e+00	-9.386317e+01
1.710000e-06	-7.203438e-07	-3.198417e-10	-3.898151e+00	-9.045656e+01
1.720000e-06	-6.596161e-07	-3.080732e-10	-3.569522e+00	-8.700240e+01
1.730000e-06	-5.988623e-07	-2.954471e-10	-3.240752e+00	-8.350047e+01
1.740000e-06	-5.381170e-07	-2.827073e-10	-2.912028e+00	-7.995073e+01
1.750000e-06	-4.772978e-07	-2.699356e-10	-2.582904e+00	-7.635337e+01
1.760000e-06	-4.163500e-07	-2.566420e-10	-2.253084e+00	-7.270877e+01
1.770000e-06	-3.554276e-07	-2.425695e-10	-1.923402e+00	-6.901752e+01
1.780000e-06	-2.945499e-07	-2.281476e-10	-1.593961e+00	-6.528040e+01
1.790000e-06	-2.336682e-07	-2.140248e-10	-1.264499e+00	-6.149841e+01
1.800000e-06	-1.728279e-07	-2.000063e-10	-9.352608e-01	-5.767270e+01
1.810000e-06	-1.119498e-07	-1.858271e-10	-6.058181e-01	-5.380465e+01
1.820000e-06	-5.113277e-08	-1.712046e-10	-2.767057e-01	-4.989578e+01
1.830000e-06	9.645793e-09	-1.557711e-10	5.219835e-02	-4.594777e+01
1.840000e-06	7.051752e-08	-1.403911e-10	3.816066e-01	-4.196246e+01
1.850000e-06	1.313767e-07	-1.260703e-10	7.109470e-01	-3.794182e+01
1.860000e-06	1.922042e-07	-1.123152e-10	1.040116e+00	-3.388795e+01
1.870000e-06	2.530339e-07	-9.812907e-11	1.369296e+00	-2.980305e+01
1.880000e-06	3.138836e-07	-8.324808e-11	1.698586e+00	-2.568945e+01
1.890000e-06	3.747749e-07	-6.840555e-11	2.028100e+00	-2.154953e+01
1.900000e-06	4.356488e-07	-5.408788e-11	2.357520e+00	-1.738577e+01
1.910000e-06	4.963758e-07	-3.943933e-11	2.686145e+00	-1.320071e+01
1.920000e-06	5.570282e-07	-2.453432e-11	3.014367e+00	-8.996948e+00
1.930000e-06	6.176807e-07	-1.036362e-11	3.342588e+00	-4.777134e+00
1.940000e-06	6.782620e-07	3.584051e-12	3.670425e+00	-5.439517e-01
1.950000e-06	7.387414e-07	1.860516e-11	3.997710e+00	3.699882e+00
1.960000e-06	7.991517e-07	3.428405e-11	4.324621e+00	7.951625e+00
1.970000e-06	8.596248e-07	4.947044e-11	4.651872e+00	1.220852e+01
1.980000e-06	9.200567e-07	6.448933e-11	4.978901e+00	1.646778e+01
1.990000e-06	9.803723e-07	7.906389e-11	5.305299e+00	2.072665e+01
2.000000e-06	1.040610e-06	9.365605e-11	5.631276e+00	2.498233e+01
2.010000e-06	1.100754e-06	1.091352e-10	5.956747e+00	2.923205e+01
2.020000e-06	1.160867e-06	1.252381e-10	6.282051e+00	3.347304e+01
2.030000e-06	1.221003e-06	1.407565e-10	6.607477e+00	3.770257e+01
2.040000e-06	1.281099e-06	1.549522e-10	6.932688e+00	4.191789e+01
2.050000e-06	1.341081e-06	1.691540e-10	7.257280e+00	4.611632e+01
2.060000e-06	1.400968e-06	1.837069e-10	7.581356e+00	5.029520e+01
2.070000e-06	1.460773e-06	1.983154e-10	7.904995e+00	5.445191e+01
2.080000e-06	1.520550e-06	2.132613e-10	8.228477e+00	5.858388e+01
2.090000e-06	1.580284e-06	2.278582e-10	8.551732e+00	6.268862e+01
2.100000e-06	1.639979e-06	2.421321e-10	8.874768e+00	6.676371e+01
2.110000e-06	1.699613e-06	2.570601e-10	9.197480e+00	7.080678e+01
2.120000e-06	1.759150e-06	2.722609e-10	9.519665e+00	7.481560e+01
2.130000e-06	1.818530e-06	2.864702e-10	9.841000e+00	7.878801e+01
2.140000e-06	1.877762e-06	2.989614e-10	1.016154e+01	8.272197e+01
2.150000e-06	1.936933e-06	3.111820e-10	1.048174e+01	8.661556e+01
2.160000e-06	1.996078e-06	3.247666e-10	1.080181e+01	9.046701e+01
2.170000e-06	2.055109e-06	3.391786e-10	1.112125e+01	9.427468e+01
2.180000e-06	2.113747e-06	3.530314e-10	1.143857e+01	9.803708e+01
2.190000e-06	2.171909e-06	3.662454e-10	1.175332e+01	1.017529e+02
2.200000e-06	2.229722e-06	3.799366e-10	1.206617e+01	1.054209e+02
2.210000e-06	2.287299e-06	3.930159e-10	1.237775e+01	1.090403e+02
2.220000e-06	2.344657e-06	4.040436e-10	1.268815e+01	1.126100e+02
2.230000e-06	2.401677e-06	4.148025e-10	1.299671e+01	1.161296e+02
2.240000e-06	2.458470e-06	4.276546e-10	1.330405e+01	1.195985e+02
2.250000e-06	2.515137e-06	4.419285e-10	1.361070e+01	1.230165e+02
2.260000e-06	2.571581e-06	4.553550e-10	1.391615e+01	1.263834e+02
2.270000e-06	2.627805e-06	4.673257e-10	1.422041e+01	1.296993e+02
2.280000e-06	2.683850e-06	4.782599e-10	1.452369e+01	1.329645e+02
2.290000e-06	2.739794e-06	4.884272e-10	1.482644e+01	1.361792e+02
2.300000e-06	2.795647e-06	4.990494e-10	1.512869e+01	1.393441e+02
2.310000e-06	2.851427e-06	5.112014e-10	1.543054e+01	1.424597e+02
2.320000e-06	2.907118e-06	5.246158e-10	1.573191e+01	1.455267e+02
2.330000e-06	2.962594e-06	5.383845e-10	1.603212e+01	1.485460e+02
2.340000e-06	3.017919e-06	5.505328e-10	1.633151e+01	1.515186e+02
2.350000e-06	3.073035e-06	5.604505e-10	1.662978e+01	1.544455e+02
2.360000e-06	3.127909e-06	5.689829e-10	1.692672e+01	1.573276e+02
2.370000e-06	3.182494e-06	5.765126e-10	1.722212e+01	1.601661e+02
2.380000e-06	3.236704e-06	5.840048e-10	1.751547e+01	1.629622e+02
2.390000e-06	3.290681e-06	5.941377e-10	1.780757e+01	1.657168e+02
2.400000e-06	3.344562e-06	6.075162e-10	1.809915e+01	1.684311e+02
2.410000e-06	3.398259e-06	6.210745e-10	1.838973e+01	1.711063e+02
2.420000e-06	3.451782e-06	6.330967e-10	1.867937e+01	1.737433e+02
2.430000e-06	3.505141e-06	6.432975e-10	1.896812e+01	1.763431e+02
2.440000e-06	3.558175e-06	6.526413e-10	1.925512e+01	1.789068e+02
2.450000e-06	3.610828e-06	6.618676e-10	1.954005e+01	1.814353e+02
2.460000e-06	3.663128e-06	6.707961e-10	1.982307e+01	1.839292e+02
2.470000e-06	3.715131e-06	6.796225e-10	2.010448e+01	1.863896e+02
2.480000e-06	3.766913e-06	6.880536e-10	2.038471e+01	1.888169e+02
2.490000e-06	3.818530e-06	6.972169e-10	2.066403e+01	1.912120e+02
2.500000e-06	3.869731e-06	7.068257e-10	2.094110e+01	1.935753e+02
2.510000e-06	3.920457e-06	7.156084e-10	2.121561e+01	1.959073e+02
2.520000e-06	3.970987e-06	7.235133e-10	2.148906e+01	1.982085e+02
2.530000e-06	4.021296e-06	7.314312e-10	2.176130e+01	2.004794e+02
2.540000e-06	4.070993e-06	7.401782e-10	2.203024e+01	2.027202e+02
2.550000e-06	4.120062e-06	7.480818e-10	2.229577e+01	2.049313e+02
2.560000e-06	4.168752e-06	7.545342e-10	2.255926e+01	2.071130e+02
2.570000e-06	4.217100e-06	7.603830e-10	2.282090e+01	2.092655e+02
2.580000e-06	4.265190e-06	7.675729e-10	2.308114e+01	2.113891e+02
2.590000e-06	4.313114e-06	7.760197e-10	2.334048e+01	2.134841e+02
2.600000e-06	4.360804e-06	7.846120e-10	2.359856e+01	2.155507e+02
2.610000e-06	4.408183e-06	7.932597e-10	2.385494e+01	2.175892e+02
2.620000e-06	4.455186e-06	8.008435e-10	2.410930e+01	2.195998e+02
2.630000e-06	4.501770e-06	8.081422e-10	2.436139e+01	2.215829e+02
2.640000e-06	4.548034e-06	8.159047e-10	2.461176e+01	2.235388e+02
2.650000e-06	4.594053e-06	8.232729e-10	2.486079e+01	2.254678e+02
2.660000e-06	4.639841e-06	8.297536e-10	2.510857e+01	2.273703e+02
2.670000e-06	4.685326e-06	8.357466e-10	2.535471e+01	2.292466e+02
2.680000e-06	4.730480e-06	8.421199e-10	2.559906e+01	2.310972e+02
2.690000e-06	4.775331e-06	8.489741e-10	2.584178e+01	2.329225e+02
2.700000e-06	4.819832e-06	8.555992e-10	2.608259e+01	2.347229e+02
2.710000e-06	4.863999e-06	8.619866e-10	2.632160e+01	2.364989e+02
2.720000e-06	4.907929e-06	8.689325e-10	2.655933e+01	2.382508e+02
2.730000e-06	4.951682e-06	8.763187e-10	2.679610e+01	2.399792e+02
2.740000e-06	4.995283e-06	8.836443e-10	2.703205e+01	2.416844e+02
2.750000e-06	5.038708e-06	8.907252e-10	2.726704e+01	2.433668e+02
2.760000e-06	5.081571e-06	8.965923e-10	2.749900e+01	2.450269e+02
2.770000e-06	5.123729e-06	9.024110e-10	2.772713e+01	2.466649e+02
2.780000e-06	5.165326e-06	9.095373e-10	2.795224e+01	2.482811e+02
2.790000e-06	5.206315e-06	9.172383e-10	2.817405e+01	2.498758e+02
2.800000e-06	5.246792e-06	9.243691e-10	2.839309e+01	2.514492e+02
2.810000e-06	5.286956e-06	9.303807e-10	2.861044e+01	2.530015e+02
2.820000e-06	5.326841e-06	9.363173e-10	2.882628e+01	2.545328e+02
2.830000e-06	5.366450e-06	9.420045e-10	2.904062e+01	2.560431e+02
2.840000e-06	5.405866e-06	9.468472e-10	2.925392e+01	2.575324e+02
2.850000e-06	5.444983e-06	9.515747e-10	2.946561e+01	2.590008e+02
2.860000e-06	5.483649e-06	9.559242e-10	2.967485e+01	2.604480e+02
2.870000e-06	5.521898e-06	9.599757e-10	2.988183e+01	2.618740e+02
2.880000e-06	5.559667e-06	9.652462e-10	3.008622e+01	2.632787e+02
2.890000e-06	5.596971e-06	9.712833e-10	3.028809e+01	2.646619e+02
2.900000e-06	5.633893e-06	9.771336e-10	3.048789e+01	2.660233e+02
