# Temperatura_=_-11.6
# Concentracion g/m^3_=_7400.0
# C_Vs_to_Am_M_A/Vsm_=_254322799225.57578
# pendiente_HvsI_1/m_=_3716.3
# ordenada_HvsI_A/m_=_1297.0
# frecuencia_Hz_=_136118.72092115827

Tiempo_(s)	Campo_(V.s)	Magnetizacion_(V.s)	Campo_(kA/m)	Magnetizacion_(A/m)
0.000000e+00	-7.115701e-06	-1.253959e-09	-3.841484e+01	-3.177385e+02
1.000000e-08	-7.116180e-06	-1.252981e-09	-3.841742e+01	-3.177255e+02
2.000000e-08	-7.116372e-06	-1.253398e-09	-3.841846e+01	-3.176888e+02
3.000000e-08	-7.116072e-06	-1.253492e-09	-3.841684e+01	-3.176288e+02
4.000000e-08	-7.114879e-06	-1.251507e-09	-3.841040e+01	-3.175461e+02
5.000000e-08	-7.112882e-06	-1.249416e-09	-3.839962e+01	-3.174413e+02
6.000000e-08	-7.110227e-06	-1.248424e-09	-3.838528e+01	-3.173150e+02
7.000000e-08	-7.107041e-06	-1.246963e-09	-3.836808e+01	-3.171679e+02
8.000000e-08	-7.103540e-06	-1.249450e-09	-3.834918e+01	-3.170010e+02
9.000000e-08	-7.099615e-06	-1.264194e-09	-3.832799e+01	-3.168151e+02
1.000000e-07	-7.095033e-06	-1.256635e-09	-3.830326e+01	-3.166111e+02
1.100000e-07	-7.089617e-06	-1.196746e-09	-3.827402e+01	-3.163901e+02
1.200000e-07	-7.083643e-06	-1.199029e-09	-3.824177e+01	-3.161531e+02
1.300000e-07	-7.077577e-06	-1.307703e-09	-3.820902e+01	-3.159011e+02
1.400000e-07	-7.071175e-06	-1.317373e-09	-3.817446e+01	-3.156354e+02
1.500000e-07	-7.064119e-06	-1.171890e-09	-3.813636e+01	-3.153571e+02
1.600000e-07	-7.056645e-06	-1.154450e-09	-3.809601e+01	-3.150672e+02
1.700000e-07	-7.048931e-06	-1.328358e-09	-3.805437e+01	-3.147670e+02
1.800000e-07	-7.040812e-06	-1.323972e-09	-3.801054e+01	-3.144577e+02
1.900000e-07	-7.031865e-06	-1.109631e-09	-3.796224e+01	-3.141403e+02
2.000000e-07	-7.021985e-06	-1.127401e-09	-3.790890e+01	-3.138158e+02
2.100000e-07	-7.011542e-06	-1.363640e-09	-3.785253e+01	-3.134854e+02
2.200000e-07	-7.000724e-06	-1.324899e-09	-3.779412e+01	-3.131500e+02
2.300000e-07	-6.989253e-06	-1.094950e-09	-3.773220e+01	-3.128104e+02
2.400000e-07	-6.977112e-06	-1.152738e-09	-3.766665e+01	-3.124675e+02
2.500000e-07	-6.964567e-06	-1.337942e-09	-3.759893e+01	-3.121219e+02
2.600000e-07	-6.951669e-06	-1.238455e-09	-3.752929e+01	-3.117743e+02
2.700000e-07	-6.937940e-06	-1.107832e-09	-3.745518e+01	-3.114250e+02
2.800000e-07	-6.923406e-06	-1.237898e-09	-3.737671e+01	-3.110743e+02
2.900000e-07	-6.908412e-06	-1.294134e-09	-3.729577e+01	-3.107226e+02
3.000000e-07	-6.892682e-06	-1.150958e-09	-3.721084e+01	-3.103698e+02
3.100000e-07	-6.876298e-06	-1.167169e-09	-3.712239e+01	-3.100159e+02
3.200000e-07	-6.859635e-06	-1.285428e-09	-3.703244e+01	-3.096606e+02
3.300000e-07	-6.842605e-06	-1.178968e-09	-3.694050e+01	-3.093035e+02
3.400000e-07	-6.825031e-06	-1.104446e-09	-3.684563e+01	-3.089443e+02
3.500000e-07	-6.806966e-06	-1.270059e-09	-3.674810e+01	-3.085823e+02
3.600000e-07	-6.788396e-06	-1.280390e-09	-3.664785e+01	-3.082168e+02
3.700000e-07	-6.769267e-06	-1.088867e-09	-3.654458e+01	-3.078469e+02
3.800000e-07	-6.749734e-06	-1.136878e-09	-3.643913e+01	-3.074718e+02
3.900000e-07	-6.730029e-06	-1.289681e-09	-3.633275e+01	-3.070905e+02
4.000000e-07	-6.710023e-06	-1.180852e-09	-3.622474e+01	-3.067020e+02
4.100000e-07	-6.689356e-06	-1.092817e-09	-3.611317e+01	-3.063051e+02
4.200000e-07	-6.668066e-06	-1.224086e-09	-3.599823e+01	-3.058989e+02
4.300000e-07	-6.646286e-06	-1.229965e-09	-3.588065e+01	-3.054822e+02
4.400000e-07	-6.623996e-06	-1.117097e-09	-3.576032e+01	-3.050539e+02
4.500000e-07	-6.601415e-06	-1.174268e-09	-3.563841e+01	-3.046129e+02
4.600000e-07	-6.578455e-06	-1.221518e-09	-3.551446e+01	-3.041584e+02
4.700000e-07	-6.554989e-06	-1.122051e-09	-3.538778e+01	-3.036893e+02
4.800000e-07	-6.531287e-06	-1.136911e-09	-3.525982e+01	-3.032049e+02
4.900000e-07	-6.507346e-06	-1.225885e-09	-3.513057e+01	-3.027043e+02
5.000000e-07	-6.482779e-06	-1.156614e-09	-3.499794e+01	-3.021868e+02
5.100000e-07	-6.457493e-06	-1.102141e-09	-3.486143e+01	-3.016521e+02
5.200000e-07	-6.431387e-06	-1.177856e-09	-3.472050e+01	-3.010996e+02
5.300000e-07	-6.404497e-06	-1.173446e-09	-3.457533e+01	-3.005290e+02
5.400000e-07	-6.377180e-06	-1.108975e-09	-3.442786e+01	-2.999402e+02
5.500000e-07	-6.349595e-06	-1.141976e-09	-3.427893e+01	-2.993331e+02
5.600000e-07	-6.321666e-06	-1.163137e-09	-3.412816e+01	-2.987078e+02
5.700000e-07	-6.293352e-06	-1.118713e-09	-3.397530e+01	-2.980644e+02
5.800000e-07	-6.264687e-06	-1.127477e-09	-3.382055e+01	-2.974032e+02
5.900000e-07	-6.235591e-06	-1.152302e-09	-3.366347e+01	-2.967246e+02
6.000000e-07	-6.205940e-06	-1.120464e-09	-3.350340e+01	-2.960289e+02
6.100000e-07	-6.175820e-06	-1.111440e-09	-3.334079e+01	-2.953168e+02
6.200000e-07	-6.145326e-06	-1.134658e-09	-3.317617e+01	-2.945887e+02
6.300000e-07	-6.114409e-06	-1.123291e-09	-3.300926e+01	-2.938451e+02
6.400000e-07	-6.083152e-06	-1.107062e-09	-3.284052e+01	-2.930867e+02
6.500000e-07	-6.051684e-06	-1.113814e-09	-3.267063e+01	-2.923140e+02
6.600000e-07	-6.019915e-06	-1.110006e-09	-3.249912e+01	-2.915275e+02
6.700000e-07	-5.987679e-06	-1.100630e-09	-3.232510e+01	-2.907277e+02
6.800000e-07	-5.954824e-06	-1.101965e-09	-3.214772e+01	-2.899150e+02
6.900000e-07	-5.921332e-06	-1.098212e-09	-3.196691e+01	-2.890898e+02
7.000000e-07	-5.887179e-06	-1.089810e-09	-3.178254e+01	-2.882523e+02
7.100000e-07	-5.852311e-06	-1.085646e-09	-3.159430e+01	-2.874026e+02
7.200000e-07	-5.817047e-06	-1.081818e-09	-3.140392e+01	-2.865408e+02
7.300000e-07	-5.781562e-06	-1.079236e-09	-3.121235e+01	-2.856668e+02
7.400000e-07	-5.745825e-06	-1.076109e-09	-3.101942e+01	-2.847805e+02
7.500000e-07	-5.709806e-06	-1.068902e-09	-3.082497e+01	-2.838815e+02
7.600000e-07	-5.673442e-06	-1.065495e-09	-3.062866e+01	-2.829694e+02
7.700000e-07	-5.636620e-06	-1.065685e-09	-3.042987e+01	-2.820438e+02
7.800000e-07	-5.599302e-06	-1.060719e-09	-3.022840e+01	-2.811039e+02
7.900000e-07	-5.561586e-06	-1.052470e-09	-3.002479e+01	-2.801492e+02
8.000000e-07	-5.523422e-06	-1.046332e-09	-2.981876e+01	-2.791787e+02
8.100000e-07	-5.484799e-06	-1.041160e-09	-2.961025e+01	-2.781918e+02
8.200000e-07	-5.445845e-06	-1.037493e-09	-2.939995e+01	-2.771875e+02
8.300000e-07	-5.406573e-06	-1.034065e-09	-2.918794e+01	-2.761648e+02
8.400000e-07	-5.367069e-06	-1.028394e-09	-2.897467e+01	-2.751230e+02
8.500000e-07	-5.327357e-06	-1.022721e-09	-2.876028e+01	-2.740611e+02
8.600000e-07	-5.287239e-06	-1.019433e-09	-2.854370e+01	-2.729782e+02
8.700000e-07	-5.246583e-06	-1.015548e-09	-2.832421e+01	-2.718735e+02
8.800000e-07	-5.205385e-06	-1.010301e-09	-2.810180e+01	-2.707463e+02
8.900000e-07	-5.163687e-06	-1.003985e-09	-2.787669e+01	-2.695958e+02
9.000000e-07	-5.121364e-06	-9.974904e-10	-2.764820e+01	-2.684215e+02
9.100000e-07	-5.078364e-06	-9.926675e-10	-2.741606e+01	-2.672230e+02
9.200000e-07	-5.035063e-06	-9.882585e-10	-2.718230e+01	-2.659998e+02
9.300000e-07	-4.991622e-06	-9.822550e-10	-2.694778e+01	-2.647516e+02
9.400000e-07	-4.947917e-06	-9.756751e-10	-2.671183e+01	-2.634785e+02
9.500000e-07	-4.903958e-06	-9.699979e-10	-2.647451e+01	-2.621802e+02
9.600000e-07	-4.859715e-06	-9.645930e-10	-2.623566e+01	-2.608571e+02
9.700000e-07	-4.815077e-06	-9.588548e-10	-2.599468e+01	-2.595091e+02
9.800000e-07	-4.770073e-06	-9.523676e-10	-2.575173e+01	-2.581368e+02
9.900000e-07	-4.724820e-06	-9.456000e-10	-2.550742e+01	-2.567404e+02
1.000000e-06	-4.679226e-06	-9.398251e-10	-2.526128e+01	-2.553205e+02
1.010000e-06	-4.633237e-06	-9.348974e-10	-2.501300e+01	-2.538776e+02
1.020000e-06	-4.586939e-06	-9.291310e-10	-2.476306e+01	-2.524123e+02
1.030000e-06	-4.540367e-06	-9.223288e-10	-2.451163e+01	-2.509253e+02
1.040000e-06	-4.493480e-06	-9.157666e-10	-2.425851e+01	-2.494171e+02
1.050000e-06	-4.446268e-06	-9.115889e-10	-2.400363e+01	-2.478883e+02
1.060000e-06	-4.398798e-06	-9.079594e-10	-2.374736e+01	-2.463396e+02
1.070000e-06	-4.351121e-06	-9.028386e-10	-2.348997e+01	-2.447714e+02
1.080000e-06	-4.303318e-06	-8.970548e-10	-2.323190e+01	-2.431842e+02
1.090000e-06	-4.255142e-06	-8.909241e-10	-2.297182e+01	-2.415783e+02
1.100000e-06	-4.206377e-06	-8.841853e-10	-2.270855e+01	-2.399541e+02
1.110000e-06	-4.157064e-06	-8.777543e-10	-2.244233e+01	-2.383116e+02
1.120000e-06	-4.107235e-06	-8.715028e-10	-2.217333e+01	-2.366509e+02
1.130000e-06	-4.056836e-06	-8.644583e-10	-2.190124e+01	-2.349719e+02
1.140000e-06	-4.006019e-06	-8.571183e-10	-2.162690e+01	-2.332743e+02
1.150000e-06	-3.955077e-06	-8.515284e-10	-2.135188e+01	-2.315578e+02
1.160000e-06	-3.903853e-06	-8.466230e-10	-2.107535e+01	-2.298218e+02
1.170000e-06	-3.852307e-06	-8.398048e-10	-2.079707e+01	-2.280657e+02
1.180000e-06	-3.800564e-06	-8.328133e-10	-2.051773e+01	-2.262888e+02
1.190000e-06	-3.748480e-06	-8.273148e-10	-2.023655e+01	-2.244902e+02
1.200000e-06	-3.695983e-06	-8.217607e-10	-1.995314e+01	-2.226690e+02
1.210000e-06	-3.643179e-06	-8.155033e-10	-1.966807e+01	-2.208241e+02
1.220000e-06	-3.590160e-06	-8.084305e-10	-1.938185e+01	-2.189546e+02
1.230000e-06	-3.536957e-06	-8.003819e-10	-1.909462e+01	-2.170594e+02
1.240000e-06	-3.483504e-06	-7.928446e-10	-1.880605e+01	-2.151373e+02
1.250000e-06	-3.429779e-06	-7.867698e-10	-1.851601e+01	-2.131873e+02
1.260000e-06	-3.375863e-06	-7.811916e-10	-1.822494e+01	-2.112083e+02
1.270000e-06	-3.321716e-06	-7.732048e-10	-1.793262e+01	-2.091994e+02
1.280000e-06	-3.267398e-06	-7.635828e-10	-1.763938e+01	-2.071596e+02
1.290000e-06	-3.212870e-06	-7.554437e-10	-1.734501e+01	-2.050881e+02
1.300000e-06	-3.158003e-06	-7.484523e-10	-1.704880e+01	-2.029844e+02
1.310000e-06	-3.102948e-06	-7.402228e-10	-1.675158e+01	-2.008477e+02
1.320000e-06	-3.047746e-06	-7.307739e-10	-1.645356e+01	-1.986777e+02
1.330000e-06	-2.992404e-06	-7.218852e-10	-1.615480e+01	-1.964741e+02
1.340000e-06	-2.936954e-06	-7.135292e-10	-1.585545e+01	-1.942368e+02
1.350000e-06	-2.881334e-06	-7.052791e-10	-1.555517e+01	-1.919659e+02
1.360000e-06	-2.825589e-06	-6.969416e-10	-1.525423e+01	-1.896616e+02
1.370000e-06	-2.769742e-06	-6.884008e-10	-1.495273e+01	-1.873241e+02
1.380000e-06	-2.713725e-06	-6.807115e-10	-1.465032e+01	-1.849541e+02
1.390000e-06	-2.657534e-06	-6.737895e-10	-1.434697e+01	-1.825520e+02
1.400000e-06	-2.601083e-06	-6.658086e-10	-1.404221e+01	-1.801187e+02
1.410000e-06	-2.544320e-06	-6.556414e-10	-1.373577e+01	-1.776549e+02
1.420000e-06	-2.487285e-06	-6.445604e-10	-1.342786e+01	-1.751616e+02
1.430000e-06	-2.430026e-06	-6.347327e-10	-1.311874e+01	-1.726396e+02
1.440000e-06	-2.372502e-06	-6.262172e-10	-1.280819e+01	-1.700900e+02
1.450000e-06	-2.314554e-06	-6.171218e-10	-1.249536e+01	-1.675136e+02
1.460000e-06	-2.256265e-06	-6.062989e-10	-1.218068e+01	-1.649113e+02
1.470000e-06	-2.197694e-06	-5.947397e-10	-1.186448e+01	-1.622841e+02
1.480000e-06	-2.138851e-06	-5.840372e-10	-1.154680e+01	-1.596327e+02
1.490000e-06	-2.079834e-06	-5.739011e-10	-1.122819e+01	-1.569577e+02
1.500000e-06	-2.020630e-06	-5.630617e-10	-1.090858e+01	-1.542596e+02
1.510000e-06	-1.961328e-06	-5.513411e-10	-1.058843e+01	-1.515389e+02
1.520000e-06	-1.901986e-06	-5.398264e-10	-1.026807e+01	-1.487956e+02
1.530000e-06	-1.842605e-06	-5.303807e-10	-9.947490e+00	-1.460299e+02
1.540000e-06	-1.783161e-06	-5.214809e-10	-9.626576e+00	-1.432415e+02
1.550000e-06	-1.723661e-06	-5.108439e-10	-9.305360e+00	-1.404301e+02
1.560000e-06	-1.664108e-06	-4.994370e-10	-8.983856e+00	-1.375950e+02
1.570000e-06	-1.604441e-06	-4.880998e-10	-8.661737e+00	-1.347354e+02
1.580000e-06	-1.544709e-06	-4.779398e-10	-8.339268e+00	-1.318504e+02
1.590000e-06	-1.484914e-06	-4.679211e-10	-8.016458e+00	-1.289387e+02
1.600000e-06	-1.425078e-06	-4.564116e-10	-7.693426e+00	-1.259990e+02
1.610000e-06	-1.365207e-06	-4.446965e-10	-7.370210e+00	-1.230298e+02
1.620000e-06	-1.305257e-06	-4.329330e-10	-7.046561e+00	-1.200293e+02
1.630000e-06	-1.245109e-06	-4.210490e-10	-6.721846e+00	-1.169959e+02
1.640000e-06	-1.184802e-06	-4.088609e-10	-6.396272e+00	-1.139277e+02
1.650000e-06	-1.124457e-06	-3.960244e-10	-6.070497e+00	-1.108226e+02
1.660000e-06	-1.063965e-06	-3.835633e-10	-5.743924e+00	-1.076790e+02
1.670000e-06	-1.003323e-06	-3.722115e-10	-5.416539e+00	-1.044947e+02
1.680000e-06	-9.426365e-07	-3.609359e-10	-5.088919e+00	-1.012679e+02
1.690000e-06	-8.819628e-07	-3.480286e-10	-4.761366e+00	-9.799681e+01
1.700000e-06	-8.213181e-07	-3.349428e-10	-4.433969e+00	-9.467975e+01
1.710000e-06	-7.606262e-07	-3.237457e-10	-4.106318e+00	-9.131515e+01
1.720000e-06	-6.999544e-07	-3.125037e-10	-3.778775e+00	-8.790162e+01
1.730000e-06	-6.392935e-07	-3.007115e-10	-3.451291e+00	-8.443799e+01
1.740000e-06	-5.784335e-07	-2.889255e-10	-3.122732e+00	-8.092329e+01
1.750000e-06	-5.174734e-07	-2.755372e-10	-2.793633e+00	-7.735681e+01
1.760000e-06	-4.565791e-07	-2.613171e-10	-2.464889e+00	-7.373812e+01
1.770000e-06	-3.956529e-07	-2.475037e-10	-2.135972e+00	-7.006706e+01
1.780000e-06	-3.345354e-07	-2.335833e-10	-1.806023e+00	-6.634376e+01
1.790000e-06	-2.732770e-07	-2.197071e-10	-1.475314e+00	-6.256867e+01
1.800000e-06	-2.120763e-07	-2.057382e-10	-1.144915e+00	-5.874254e+01
1.810000e-06	-1.510278e-07	-1.911619e-10	-8.153388e-01	-5.486642e+01
1.820000e-06	-9.002249e-08	-1.763178e-10	-4.859956e-01	-5.094167e+01
1.830000e-06	-2.893131e-08	-1.616447e-10	-1.561886e-01	-4.696997e+01
1.840000e-06	3.211396e-08	-1.470212e-10	1.733705e-01	-4.295326e+01
1.850000e-06	9.307264e-08	-1.318845e-10	5.024621e-01	-3.889376e+01
1.860000e-06	1.541098e-07	-1.170384e-10	8.319777e-01	-3.479395e+01
1.870000e-06	2.152423e-07	-1.039386e-10	1.162007e+00	-3.065655e+01
1.880000e-06	2.763735e-07	-9.101540e-11	1.492030e+00	-2.648448e+01
1.890000e-06	3.374209e-07	-7.601367e-11	1.821601e+00	-2.228087e+01
1.900000e-06	3.984210e-07	-6.098424e-11	2.150916e+00	-1.804901e+01
1.910000e-06	4.594127e-07	-4.590267e-11	2.480186e+00	-1.379234e+01
1.920000e-06	5.203908e-07	-2.995029e-11	2.809383e+00	-9.514390e+00
1.930000e-06	5.813215e-07	-1.524236e-11	3.138323e+00	-5.218809e+00
1.940000e-06	6.421931e-07	-8.535762e-13	3.466945e+00	-9.092933e-01
1.950000e-06	7.029535e-07	1.528122e-11	3.794966e+00	3.410419e+00
1.960000e-06	7.636698e-07	3.204484e-11	4.122749e+00	7.736578e+00
1.970000e-06	8.243905e-07	4.748327e-11	4.450556e+00	1.206544e+01
1.980000e-06	8.850348e-07	6.155535e-11	4.777950e+00	1.639331e+01
1.990000e-06	9.455339e-07	7.491841e-11	5.104561e+00	2.071652e+01
2.000000e-06	1.005996e-06	8.932392e-11	5.430972e+00	2.503149e+01
2.010000e-06	1.066445e-06	1.058062e-10	5.757313e+00	2.933473e+01
2.020000e-06	1.126694e-06	1.227185e-10	6.082571e+00	3.362285e+01
2.030000e-06	1.186843e-06	1.382086e-10	6.407293e+00	3.789257e+01
2.040000e-06	1.247032e-06	1.529560e-10	6.732228e+00	4.214074e+01
2.050000e-06	1.307126e-06	1.678754e-10	7.056655e+00	4.636435e+01
2.060000e-06	1.367109e-06	1.825545e-10	7.380478e+00	5.056054e+01
2.070000e-06	1.427000e-06	1.963566e-10	7.703806e+00	5.472660e+01
2.080000e-06	1.486756e-06	2.096766e-10	8.026406e+00	5.885995e+01
2.090000e-06	1.546417e-06	2.235122e-10	8.348488e+00	6.295820e+01
2.100000e-06	1.606029e-06	2.387419e-10	8.670313e+00	6.701911e+01
2.110000e-06	1.665651e-06	2.545271e-10	8.992184e+00	7.104061e+01
2.120000e-06	1.725210e-06	2.687707e-10	9.313723e+00	7.502076e+01
2.130000e-06	1.784718e-06	2.820508e-10	9.634982e+00	7.895782e+01
2.140000e-06	1.844214e-06	2.950196e-10	9.956177e+00	8.285020e+01
2.150000e-06	1.903646e-06	3.079749e-10	1.027703e+01	8.669647e+01
2.160000e-06	1.962954e-06	3.217642e-10	1.059721e+01	9.049534e+01
2.170000e-06	2.022151e-06	3.351986e-10	1.091679e+01	9.424572e+01
2.180000e-06	2.081191e-06	3.473333e-10	1.123552e+01	9.794662e+01
2.190000e-06	2.139974e-06	3.595622e-10	1.155287e+01	1.015973e+02
2.200000e-06	2.198469e-06	3.735967e-10	1.186866e+01	1.051970e+02
2.210000e-06	2.256703e-06	3.876428e-10	1.218304e+01	1.087453e+02
2.220000e-06	2.314770e-06	3.999772e-10	1.249652e+01	1.122418e+02
2.230000e-06	2.372522e-06	4.119091e-10	1.280830e+01	1.156863e+02
2.240000e-06	2.429919e-06	4.240341e-10	1.311816e+01	1.190787e+02
2.250000e-06	2.487032e-06	4.367810e-10	1.342650e+01	1.224191e+02
2.260000e-06	2.543861e-06	4.499292e-10	1.373330e+01	1.257077e+02
2.270000e-06	2.600430e-06	4.614267e-10	1.403868e+01	1.289449e+02
2.280000e-06	2.656697e-06	4.716675e-10	1.434245e+01	1.321310e+02
2.290000e-06	2.712700e-06	4.828350e-10	1.464479e+01	1.352668e+02
2.300000e-06	2.768542e-06	4.947696e-10	1.494625e+01	1.383528e+02
2.310000e-06	2.824257e-06	5.068575e-10	1.524704e+01	1.413898e+02
2.320000e-06	2.879800e-06	5.192591e-10	1.554689e+01	1.443789e+02
2.330000e-06	2.935277e-06	5.319436e-10	1.584639e+01	1.473209e+02
2.340000e-06	2.990644e-06	5.441955e-10	1.614529e+01	1.502170e+02
2.350000e-06	3.045803e-06	5.557069e-10	1.644308e+01	1.530683e+02
2.360000e-06	3.100877e-06	5.654415e-10	1.674040e+01	1.558761e+02
2.370000e-06	3.155775e-06	5.732311e-10	1.703677e+01	1.586415e+02
2.380000e-06	3.210476e-06	5.803059e-10	1.733208e+01	1.613660e+02
2.390000e-06	3.265030e-06	5.891713e-10	1.762660e+01	1.640507e+02
2.400000e-06	3.319317e-06	6.009842e-10	1.791967e+01	1.666972e+02
2.410000e-06	3.373331e-06	6.131526e-10	1.821127e+01	1.693067e+02
2.420000e-06	3.427033e-06	6.244937e-10	1.850119e+01	1.718805e+02
2.430000e-06	3.480556e-06	6.349144e-10	1.879014e+01	1.744200e+02
2.440000e-06	3.534013e-06	6.444767e-10	1.907873e+01	1.769265e+02
2.450000e-06	3.587237e-06	6.532710e-10	1.936606e+01	1.794011e+02
2.460000e-06	3.640107e-06	6.614440e-10	1.965149e+01	1.818452e+02
2.470000e-06	3.692593e-06	6.697138e-10	1.993484e+01	1.842597e+02
2.480000e-06	3.744743e-06	6.781086e-10	2.021637e+01	1.866457e+02
2.490000e-06	3.796673e-06	6.870976e-10	2.049673e+01	1.890042e+02
2.500000e-06	3.848340e-06	6.962642e-10	2.077566e+01	1.913360e+02
2.510000e-06	3.899608e-06	7.050722e-10	2.105243e+01	1.936420e+02
2.520000e-06	3.950551e-06	7.136128e-10	2.132745e+01	1.959228e+02
2.530000e-06	4.001232e-06	7.216620e-10	2.160106e+01	1.981791e+02
2.540000e-06	4.051458e-06	7.298045e-10	2.187221e+01	2.004112e+02
2.550000e-06	4.101073e-06	7.375968e-10	2.214006e+01	2.026197e+02
2.560000e-06	4.150097e-06	7.445022e-10	2.240472e+01	2.048049e+02
2.570000e-06	4.198683e-06	7.509631e-10	2.266702e+01	2.069669e+02
2.580000e-06	4.246846e-06	7.580757e-10	2.292703e+01	2.091061e+02
2.590000e-06	4.294638e-06	7.664761e-10	2.318504e+01	2.112223e+02
2.600000e-06	4.342289e-06	7.757123e-10	2.344229e+01	2.133158e+02
2.610000e-06	4.389790e-06	7.845873e-10	2.369873e+01	2.153864e+02
2.620000e-06	4.437103e-06	7.923934e-10	2.395415e+01	2.174341e+02
2.630000e-06	4.484195e-06	7.993226e-10	2.420838e+01	2.194588e+02
2.640000e-06	4.530929e-06	8.061067e-10	2.446068e+01	2.214603e+02
2.650000e-06	4.577357e-06	8.131929e-10	2.471133e+01	2.234384e+02
2.660000e-06	4.623493e-06	8.196473e-10	2.496040e+01	2.253931e+02
2.670000e-06	4.669243e-06	8.251147e-10	2.520738e+01	2.273241e+02
2.680000e-06	4.714604e-06	8.305156e-10	2.545227e+01	2.292312e+02
2.690000e-06	4.759659e-06	8.370123e-10	2.569550e+01	2.311143e+02
2.700000e-06	4.804406e-06	8.440872e-10	2.593707e+01	2.329733e+02
2.710000e-06	4.848746e-06	8.507280e-10	2.617645e+01	2.348080e+02
2.720000e-06	4.892706e-06	8.578639e-10	2.641377e+01	2.366183e+02
2.730000e-06	4.936404e-06	8.663006e-10	2.664968e+01	2.384042e+02
2.740000e-06	4.979944e-06	8.748143e-10	2.688474e+01	2.401655e+02
2.750000e-06	5.023311e-06	8.819740e-10	2.711885e+01	2.419024e+02
2.760000e-06	5.066443e-06	8.880741e-10	2.735171e+01	2.436148e+02
2.770000e-06	5.109367e-06	8.935023e-10	2.758344e+01	2.453027e+02
2.780000e-06	5.151895e-06	8.997428e-10	2.781303e+01	2.469662e+02
2.790000e-06	5.193830e-06	9.076896e-10	2.803942e+01	2.486054e+02
2.800000e-06	5.235089e-06	9.156053e-10	2.826216e+01	2.502203e+02
2.810000e-06	5.275584e-06	9.223532e-10	2.848078e+01	2.518112e+02
2.820000e-06	5.315560e-06	9.283218e-10	2.869659e+01	2.533780e+02
2.830000e-06	5.355253e-06	9.344800e-10	2.891088e+01	2.549210e+02
2.840000e-06	5.394724e-06	9.406974e-10	2.912396e+01	2.564402e+02
2.850000e-06	5.433960e-06	9.467537e-10	2.933579e+01	2.579358e+02
2.860000e-06	5.472822e-06	9.519094e-10	2.954559e+01	2.594078e+02
2.870000e-06	5.511243e-06	9.560363e-10	2.975301e+01	2.608563e+02
2.880000e-06	5.549257e-06	9.610613e-10	2.995823e+01	2.622815e+02
2.890000e-06	5.586842e-06	9.673330e-10	3.016114e+01	2.636834e+02
2.900000e-06	5.623975e-06	9.741188e-10	3.036160e+01	2.650621e+02
