# Temperatura_=_-5.3
# Concentracion g/m^3_=_7400.0
# C_Vs_to_Am_M_A/Vsm_=_254322799225.57578
# pendiente_HvsI_1/m_=_3716.3
# ordenada_HvsI_A/m_=_1297.0
# frecuencia_Hz_=_136116.3863676251

Tiempo_(s)	Campo_(V.s)	Magnetizacion_(V.s)	Campo_(kA/m)	Magnetizacion_(A/m)
0.000000e+00	-7.125198e-06	-1.267225e-09	-3.842014e+01	-3.208580e+02
1.000000e-08	-7.125490e-06	-1.266022e-09	-3.842171e+01	-3.207771e+02
2.000000e-08	-7.125450e-06	-1.265906e-09	-3.842150e+01	-3.206837e+02
3.000000e-08	-7.124905e-06	-1.265638e-09	-3.841856e+01	-3.205780e+02
4.000000e-08	-7.123692e-06	-1.265121e-09	-3.841202e+01	-3.204606e+02
5.000000e-08	-7.121726e-06	-1.264134e-09	-3.840142e+01	-3.203316e+02
6.000000e-08	-7.119085e-06	-1.262998e-09	-3.838717e+01	-3.201915e+02
7.000000e-08	-7.115863e-06	-1.261169e-09	-3.836980e+01	-3.200404e+02
8.000000e-08	-7.112162e-06	-1.259278e-09	-3.834985e+01	-3.198787e+02
9.000000e-08	-7.108068e-06	-1.268546e-09	-3.832777e+01	-3.197065e+02
1.000000e-07	-7.103246e-06	-1.271898e-09	-3.830177e+01	-3.195242e+02
1.100000e-07	-7.097677e-06	-1.230742e-09	-3.827174e+01	-3.193320e+02
1.200000e-07	-7.091844e-06	-1.210842e-09	-3.824029e+01	-3.191302e+02
1.300000e-07	-7.085828e-06	-1.281017e-09	-3.820785e+01	-3.189190e+02
1.400000e-07	-7.079333e-06	-1.321556e-09	-3.817283e+01	-3.186987e+02
1.500000e-07	-7.072265e-06	-1.225465e-09	-3.813472e+01	-3.184696e+02
1.600000e-07	-7.064790e-06	-1.171163e-09	-3.809441e+01	-3.182320e+02
1.700000e-07	-7.056919e-06	-1.288878e-09	-3.805197e+01	-3.179863e+02
1.800000e-07	-7.048423e-06	-1.336998e-09	-3.800616e+01	-3.177328e+02
1.900000e-07	-7.039216e-06	-1.185527e-09	-3.795651e+01	-3.174719e+02
2.000000e-07	-7.029289e-06	-1.133838e-09	-3.790298e+01	-3.172039e+02
2.100000e-07	-7.018889e-06	-1.307076e-09	-3.784690e+01	-3.169293e+02
2.200000e-07	-7.008103e-06	-1.343926e-09	-3.778874e+01	-3.166483e+02
2.300000e-07	-6.996658e-06	-1.168574e-09	-3.772703e+01	-3.163614e+02
2.400000e-07	-6.984613e-06	-1.151631e-09	-3.766208e+01	-3.160688e+02
2.500000e-07	-6.972037e-06	-1.306277e-09	-3.759427e+01	-3.157710e+02
2.600000e-07	-6.958849e-06	-1.278554e-09	-3.752316e+01	-3.154680e+02
2.700000e-07	-6.945054e-06	-1.149534e-09	-3.744878e+01	-3.151603e+02
2.800000e-07	-6.930688e-06	-1.213651e-09	-3.737131e+01	-3.148479e+02
2.900000e-07	-6.915572e-06	-1.294569e-09	-3.728980e+01	-3.145309e+02
3.000000e-07	-6.899670e-06	-1.198515e-09	-3.720406e+01	-3.142094e+02
3.100000e-07	-6.883311e-06	-1.168936e-09	-3.711585e+01	-3.138834e+02
3.200000e-07	-6.866597e-06	-1.272829e-09	-3.702572e+01	-3.135527e+02
3.300000e-07	-6.849421e-06	-1.226613e-09	-3.693311e+01	-3.132171e+02
3.400000e-07	-6.831762e-06	-1.131450e-09	-3.683789e+01	-3.128763e+02
3.500000e-07	-6.813587e-06	-1.233813e-09	-3.673989e+01	-3.125300e+02
3.600000e-07	-6.795018e-06	-1.296475e-09	-3.663976e+01	-3.121777e+02
3.700000e-07	-6.775986e-06	-1.156147e-09	-3.653714e+01	-3.118189e+02
3.800000e-07	-6.756439e-06	-1.137653e-09	-3.643174e+01	-3.114530e+02
3.900000e-07	-6.736627e-06	-1.269526e-09	-3.632491e+01	-3.110793e+02
4.000000e-07	-6.716454e-06	-1.227458e-09	-3.621613e+01	-3.106971e+02
4.100000e-07	-6.695734e-06	-1.127767e-09	-3.610441e+01	-3.103057e+02
4.200000e-07	-6.674430e-06	-1.208337e-09	-3.598953e+01	-3.099043e+02
4.300000e-07	-6.652602e-06	-1.247906e-09	-3.587183e+01	-3.094920e+02
4.400000e-07	-6.630304e-06	-1.154297e-09	-3.575160e+01	-3.090682e+02
4.500000e-07	-6.607605e-06	-1.171310e-09	-3.562920e+01	-3.086319e+02
4.600000e-07	-6.584551e-06	-1.234448e-09	-3.550489e+01	-3.081825e+02
4.700000e-07	-6.561124e-06	-1.166836e-09	-3.537857e+01	-3.077191e+02
4.800000e-07	-6.537333e-06	-1.143408e-09	-3.525028e+01	-3.072412e+02
4.900000e-07	-6.513082e-06	-1.220278e-09	-3.511952e+01	-3.067481e+02
5.000000e-07	-6.488185e-06	-1.192262e-09	-3.498527e+01	-3.062393e+02
5.100000e-07	-6.462531e-06	-1.128092e-09	-3.484694e+01	-3.057143e+02
5.200000e-07	-6.436282e-06	-1.175113e-09	-3.470540e+01	-3.051728e+02
5.300000e-07	-6.409501e-06	-1.193579e-09	-3.456099e+01	-3.046145e+02
5.400000e-07	-6.382200e-06	-1.139095e-09	-3.441378e+01	-3.040392e+02
5.500000e-07	-6.354466e-06	-1.151785e-09	-3.426423e+01	-3.034469e+02
5.600000e-07	-6.326333e-06	-1.181843e-09	-3.411254e+01	-3.028376e+02
5.700000e-07	-6.297780e-06	-1.146460e-09	-3.395858e+01	-3.022113e+02
5.800000e-07	-6.268798e-06	-1.136186e-09	-3.380230e+01	-3.015684e+02
5.900000e-07	-6.239491e-06	-1.161443e-09	-3.364428e+01	-3.009090e+02
6.000000e-07	-6.209889e-06	-1.143745e-09	-3.348466e+01	-3.002335e+02
6.100000e-07	-6.179932e-06	-1.125429e-09	-3.332312e+01	-2.995422e+02
6.200000e-07	-6.149468e-06	-1.142815e-09	-3.315886e+01	-2.988357e+02
6.300000e-07	-6.118347e-06	-1.141625e-09	-3.299105e+01	-2.981142e+02
6.400000e-07	-6.086704e-06	-1.125101e-09	-3.282042e+01	-2.973782e+02
6.500000e-07	-6.054935e-06	-1.128907e-09	-3.264912e+01	-2.966282e+02
6.600000e-07	-6.023028e-06	-1.130104e-09	-3.247707e+01	-2.958645e+02
6.700000e-07	-5.990720e-06	-1.119189e-09	-3.230286e+01	-2.950875e+02
6.800000e-07	-5.957763e-06	-1.116791e-09	-3.212515e+01	-2.942974e+02
6.900000e-07	-5.923995e-06	-1.117229e-09	-3.194307e+01	-2.934943e+02
7.000000e-07	-5.889509e-06	-1.110569e-09	-3.175712e+01	-2.926785e+02
7.100000e-07	-5.854503e-06	-1.103429e-09	-3.156836e+01	-2.918498e+02
7.200000e-07	-5.819232e-06	-1.098906e-09	-3.137817e+01	-2.910082e+02
7.300000e-07	-5.783727e-06	-1.096116e-09	-3.118672e+01	-2.901534e+02
7.400000e-07	-5.747956e-06	-1.092867e-09	-3.099384e+01	-2.892851e+02
7.500000e-07	-5.711925e-06	-1.087931e-09	-3.079956e+01	-2.884028e+02
7.600000e-07	-5.675496e-06	-1.084454e-09	-3.060313e+01	-2.875059e+02
7.700000e-07	-5.638506e-06	-1.083001e-09	-3.040367e+01	-2.865938e+02
7.800000e-07	-5.601043e-06	-1.078654e-09	-3.020166e+01	-2.856656e+02
7.900000e-07	-5.563219e-06	-1.071537e-09	-2.999772e+01	-2.847205e+02
8.000000e-07	-5.524983e-06	-1.065124e-09	-2.979154e+01	-2.837576e+02
8.100000e-07	-5.486247e-06	-1.058378e-09	-2.958267e+01	-2.827759e+02
8.200000e-07	-5.447146e-06	-1.053805e-09	-2.937183e+01	-2.817743e+02
8.300000e-07	-5.407765e-06	-1.051333e-09	-2.915948e+01	-2.807519e+02
8.400000e-07	-5.368116e-06	-1.047231e-09	-2.894569e+01	-2.797075e+02
8.500000e-07	-5.328224e-06	-1.040636e-09	-2.873059e+01	-2.786403e+02
8.600000e-07	-5.287954e-06	-1.034588e-09	-2.851344e+01	-2.775491e+02
8.700000e-07	-5.247322e-06	-1.029867e-09	-2.829435e+01	-2.764333e+02
8.800000e-07	-5.206159e-06	-1.025394e-09	-2.807239e+01	-2.752919e+02
8.900000e-07	-5.164358e-06	-1.018517e-09	-2.784699e+01	-2.741242e+02
9.000000e-07	-5.121927e-06	-1.010247e-09	-2.761820e+01	-2.729298e+02
9.100000e-07	-5.078902e-06	-1.004088e-09	-2.738620e+01	-2.717082e+02
9.200000e-07	-5.035540e-06	-9.995061e-10	-2.715239e+01	-2.704591e+02
9.300000e-07	-4.991913e-06	-9.937663e-10	-2.691715e+01	-2.691823e+02
9.400000e-07	-4.948113e-06	-9.867994e-10	-2.668097e+01	-2.678779e+02
9.500000e-07	-4.904127e-06	-9.807784e-10	-2.644379e+01	-2.665461e+02
9.600000e-07	-4.859838e-06	-9.768879e-10	-2.620498e+01	-2.651872e+02
9.700000e-07	-4.815146e-06	-9.734822e-10	-2.596399e+01	-2.638016e+02
9.800000e-07	-4.769991e-06	-9.683882e-10	-2.572051e+01	-2.623900e+02
9.900000e-07	-4.724571e-06	-9.619826e-10	-2.547560e+01	-2.609530e+02
1.000000e-06	-4.678908e-06	-9.548545e-10	-2.522938e+01	-2.594915e+02
1.010000e-06	-4.632721e-06	-9.478167e-10	-2.498033e+01	-2.580064e+02
1.020000e-06	-4.586181e-06	-9.413802e-10	-2.472938e+01	-2.564986e+02
1.030000e-06	-4.539561e-06	-9.351773e-10	-2.447799e+01	-2.549691e+02
1.040000e-06	-4.492615e-06	-9.284913e-10	-2.422486e+01	-2.534189e+02
1.050000e-06	-4.445288e-06	-9.239752e-10	-2.396966e+01	-2.518490e+02
1.060000e-06	-4.397716e-06	-9.205462e-10	-2.371315e+01	-2.502603e+02
1.070000e-06	-4.349850e-06	-9.159216e-10	-2.345504e+01	-2.486536e+02
1.080000e-06	-4.301683e-06	-9.107585e-10	-2.319532e+01	-2.470298e+02
1.090000e-06	-4.253168e-06	-9.038608e-10	-2.293372e+01	-2.453895e+02
1.100000e-06	-4.204331e-06	-8.958444e-10	-2.267039e+01	-2.437331e+02
1.110000e-06	-4.155028e-06	-8.885118e-10	-2.240454e+01	-2.420611e+02
1.120000e-06	-4.105068e-06	-8.811317e-10	-2.213514e+01	-2.403735e+02
1.130000e-06	-4.054749e-06	-8.736765e-10	-2.186381e+01	-2.386705e+02
1.140000e-06	-4.004094e-06	-8.667890e-10	-2.159068e+01	-2.369518e+02
1.150000e-06	-3.952982e-06	-8.611554e-10	-2.131507e+01	-2.352170e+02
1.160000e-06	-3.901577e-06	-8.564088e-10	-2.103789e+01	-2.334657e+02
1.170000e-06	-3.849947e-06	-8.511507e-10	-2.075949e+01	-2.316969e+02
1.180000e-06	-3.798141e-06	-8.444648e-10	-2.048015e+01	-2.299099e+02
1.190000e-06	-3.746116e-06	-8.362566e-10	-2.019962e+01	-2.281035e+02
1.200000e-06	-3.693660e-06	-8.272671e-10	-1.991677e+01	-2.262765e+02
1.210000e-06	-3.640771e-06	-8.191499e-10	-1.963159e+01	-2.244276e+02
1.220000e-06	-3.587631e-06	-8.117587e-10	-1.934505e+01	-2.225553e+02
1.230000e-06	-3.534291e-06	-8.045110e-10	-1.905743e+01	-2.206583e+02
1.240000e-06	-3.480727e-06	-7.978154e-10	-1.876860e+01	-2.187348e+02
1.250000e-06	-3.426942e-06	-7.921469e-10	-1.847859e+01	-2.167835e+02
1.260000e-06	-3.372923e-06	-7.871007e-10	-1.818731e+01	-2.148027e+02
1.270000e-06	-3.318730e-06	-7.793611e-10	-1.789509e+01	-2.127911e+02
1.280000e-06	-3.264319e-06	-7.690401e-10	-1.760170e+01	-2.107472e+02
1.290000e-06	-3.209614e-06	-7.592354e-10	-1.730672e+01	-2.086697e+02
1.300000e-06	-3.154631e-06	-7.511355e-10	-1.701025e+01	-2.065577e+02
1.310000e-06	-3.099443e-06	-7.430079e-10	-1.671266e+01	-2.044100e+02
1.320000e-06	-3.044102e-06	-7.345299e-10	-1.641425e+01	-2.022259e+02
1.330000e-06	-2.988568e-06	-7.267827e-10	-1.611481e+01	-2.000048e+02
1.340000e-06	-2.932928e-06	-7.188418e-10	-1.581479e+01	-1.977463e+02
1.350000e-06	-2.877258e-06	-7.101545e-10	-1.551461e+01	-1.954504e+02
1.360000e-06	-2.821452e-06	-7.012726e-10	-1.521369e+01	-1.931169e+02
1.370000e-06	-2.765459e-06	-6.924319e-10	-1.491177e+01	-1.907462e+02
1.380000e-06	-2.709265e-06	-6.837940e-10	-1.460877e+01	-1.883388e+02
1.390000e-06	-2.652867e-06	-6.753830e-10	-1.430466e+01	-1.858953e+02
1.400000e-06	-2.596307e-06	-6.671392e-10	-1.399968e+01	-1.834166e+02
1.410000e-06	-2.539459e-06	-6.571480e-10	-1.369315e+01	-1.809038e+02
1.420000e-06	-2.482377e-06	-6.459452e-10	-1.338535e+01	-1.783578e+02
1.430000e-06	-2.425158e-06	-6.362340e-10	-1.307682e+01	-1.757801e+02
1.440000e-06	-2.367565e-06	-6.271012e-10	-1.276627e+01	-1.731718e+02
1.450000e-06	-2.309495e-06	-6.171048e-10	-1.245314e+01	-1.705344e+02
1.460000e-06	-2.251004e-06	-6.071222e-10	-1.213775e+01	-1.678693e+02
1.470000e-06	-2.192252e-06	-5.966072e-10	-1.182095e+01	-1.651777e+02
1.480000e-06	-2.133305e-06	-5.856468e-10	-1.150310e+01	-1.624609e+02
1.490000e-06	-2.074210e-06	-5.747862e-10	-1.118445e+01	-1.597201e+02
1.500000e-06	-2.014979e-06	-5.634443e-10	-1.086507e+01	-1.569563e+02
1.510000e-06	-1.955609e-06	-5.520353e-10	-1.054494e+01	-1.541703e+02
1.520000e-06	-1.896227e-06	-5.410822e-10	-1.022474e+01	-1.513629e+02
1.530000e-06	-1.836792e-06	-5.314436e-10	-9.904256e+00	-1.485344e+02
1.540000e-06	-1.777274e-06	-5.217701e-10	-9.583328e+00	-1.456851e+02
1.550000e-06	-1.717689e-06	-5.110151e-10	-9.262038e+00	-1.428149e+02
1.560000e-06	-1.658063e-06	-4.995503e-10	-8.940524e+00	-1.399235e+02
1.570000e-06	-1.598386e-06	-4.880345e-10	-8.618737e+00	-1.370103e+02
1.580000e-06	-1.538627e-06	-4.772910e-10	-8.296508e+00	-1.340745e+02
1.590000e-06	-1.478841e-06	-4.664228e-10	-7.974135e+00	-1.311148e+02
1.600000e-06	-1.418938e-06	-4.544648e-10	-7.651127e+00	-1.281300e+02
1.610000e-06	-1.358877e-06	-4.423429e-10	-7.327268e+00	-1.251184e+02
1.620000e-06	-1.298786e-06	-4.310712e-10	-7.003250e+00	-1.220782e+02
1.630000e-06	-1.238587e-06	-4.206280e-10	-6.678645e+00	-1.190072e+02
1.640000e-06	-1.178259e-06	-4.094101e-10	-6.353348e+00	-1.159034e+02
1.650000e-06	-1.117945e-06	-3.966717e-10	-6.028128e+00	-1.127644e+02
1.660000e-06	-1.057627e-06	-3.843139e-10	-5.702885e+00	-1.095878e+02
1.670000e-06	-9.971577e-07	-3.739612e-10	-5.376824e+00	-1.063711e+02
1.680000e-06	-9.364770e-07	-3.641900e-10	-5.049625e+00	-1.031119e+02
1.690000e-06	-8.757837e-07	-3.516997e-10	-4.722357e+00	-9.980767e+01
1.700000e-06	-8.150809e-07	-3.382162e-10	-4.395039e+00	-9.645608e+01
1.710000e-06	-7.541967e-07	-3.261696e-10	-4.066742e+00	-9.305489e+01
1.720000e-06	-6.932662e-07	-3.145194e-10	-3.738196e+00	-8.960202e+01
1.730000e-06	-6.323065e-07	-3.026340e-10	-3.409492e+00	-8.609557e+01
1.740000e-06	-5.713108e-07	-2.895613e-10	-3.080594e+00	-8.253390e+01
1.750000e-06	-5.103687e-07	-2.756898e-10	-2.751985e+00	-7.891563e+01
1.760000e-06	-4.493583e-07	-2.622707e-10	-2.423007e+00	-7.523967e+01
1.770000e-06	-3.882700e-07	-2.493458e-10	-2.093610e+00	-7.150528e+01
1.780000e-06	-3.271509e-07	-2.359691e-10	-1.764047e+00	-6.771204e+01
1.790000e-06	-2.659202e-07	-2.215770e-10	-1.433882e+00	-6.385991e+01
1.800000e-06	-2.047248e-07	-2.062274e-10	-1.103907e+00	-5.994921e+01
1.810000e-06	-1.436201e-07	-1.910985e-10	-7.744213e-01	-5.598067e+01
1.820000e-06	-8.250367e-08	-1.771710e-10	-4.448722e-01	-5.195537e+01
1.830000e-06	-2.136769e-08	-1.626131e-10	-1.152178e-01	-4.787479e+01
1.840000e-06	3.973906e-08	-1.464592e-10	2.142790e-01	-4.374077e+01
1.850000e-06	1.007538e-07	-1.303901e-10	5.432797e-01	-3.955552e+01
1.860000e-06	1.617793e-07	-1.158296e-10	8.723382e-01	-3.532157e+01
1.870000e-06	2.229542e-07	-1.027095e-10	1.202203e+00	-3.104180e+01
1.880000e-06	2.841571e-07	-8.880201e-11	1.532218e+00	-2.671935e+01
1.890000e-06	3.452691e-07	-7.257660e-11	1.861743e+00	-2.235767e+01
1.900000e-06	4.064382e-07	-5.579826e-11	2.191576e+00	-1.796040e+01
1.910000e-06	4.676468e-07	-3.924236e-11	2.521622e+00	-1.353142e+01
1.920000e-06	5.286773e-07	-2.390304e-11	2.850707e+00	-9.074783e+00
1.930000e-06	5.895829e-07	-1.009915e-11	3.179120e+00	-4.594660e+00
1.940000e-06	6.504781e-07	4.305475e-12	3.507476e+00	-9.534574e-02
1.950000e-06	7.112653e-07	2.097722e-11	3.835250e+00	4.418800e+00
1.960000e-06	7.720133e-07	3.870714e-11	4.162812e+00	8.943375e+00
1.970000e-06	8.327661e-07	5.520712e-11	4.490400e+00	1.347397e+01
1.980000e-06	8.933600e-07	7.078010e-11	4.817132e+00	1.800621e+01
1.990000e-06	9.538359e-07	8.619662e-11	5.143226e+00	2.253576e+01
2.000000e-06	1.014303e-06	1.017039e-10	5.469272e+00	2.705835e+01
2.010000e-06	1.074680e-06	1.172145e-10	5.794836e+00	3.156985e+01
2.020000e-06	1.134926e-06	1.333378e-10	6.119693e+00	3.606622e+01
2.030000e-06	1.195154e-06	1.506950e-10	6.444450e+00	4.054357e+01
2.040000e-06	1.255335e-06	1.676330e-10	6.768956e+00	4.499818e+01
2.050000e-06	1.315402e-06	1.835512e-10	7.092843e+00	4.942649e+01
2.060000e-06	1.375310e-06	1.989671e-10	7.415879e+00	5.382514e+01
2.070000e-06	1.435109e-06	2.135482e-10	7.738326e+00	5.819094e+01
2.080000e-06	1.494839e-06	2.282938e-10	8.060395e+00	6.252092e+01
2.090000e-06	1.554456e-06	2.433217e-10	8.381859e+00	6.681229e+01
2.100000e-06	1.614028e-06	2.582936e-10	8.703082e+00	7.106249e+01
2.110000e-06	1.673598e-06	2.739731e-10	9.024294e+00	7.526916e+01
2.120000e-06	1.733177e-06	2.888547e-10	9.345554e+00	7.943014e+01
2.130000e-06	1.792693e-06	3.025907e-10	9.666469e+00	8.354347e+01
2.140000e-06	1.852113e-06	3.166173e-10	9.986870e+00	8.760740e+01
2.150000e-06	1.911479e-06	3.307884e-10	1.030698e+01	9.162038e+01
2.160000e-06	1.970732e-06	3.452079e-10	1.062648e+01	9.558106e+01
2.170000e-06	2.029929e-06	3.595751e-10	1.094568e+01	9.948825e+01
2.180000e-06	2.089144e-06	3.732771e-10	1.126498e+01	1.033410e+02
2.190000e-06	2.148227e-06	3.871342e-10	1.158356e+01	1.071384e+02
2.200000e-06	2.207015e-06	4.014620e-10	1.190056e+01	1.108799e+02
2.210000e-06	2.265464e-06	4.152915e-10	1.221572e+01	1.145651e+02
2.220000e-06	2.323587e-06	4.280631e-10	1.252913e+01	1.181935e+02
2.230000e-06	2.381375e-06	4.399185e-10	1.284073e+01	1.217652e+02
2.240000e-06	2.438911e-06	4.530725e-10	1.315097e+01	1.252799e+02
2.250000e-06	2.496221e-06	4.678409e-10	1.346000e+01	1.287380e+02
2.260000e-06	2.553072e-06	4.812978e-10	1.376655e+01	1.321397e+02
2.270000e-06	2.609579e-06	4.926932e-10	1.407124e+01	1.354855e+02
2.280000e-06	2.665897e-06	5.036643e-10	1.437491e+01	1.387758e+02
2.290000e-06	2.722018e-06	5.151077e-10	1.467753e+01	1.420114e+02
2.300000e-06	2.777986e-06	5.265319e-10	1.497932e+01	1.451930e+02
2.310000e-06	2.833801e-06	5.387065e-10	1.528028e+01	1.483216e+02
2.320000e-06	2.889481e-06	5.509008e-10	1.558051e+01	1.513981e+02
2.330000e-06	2.945010e-06	5.629001e-10	1.587994e+01	1.544237e+02
2.340000e-06	3.000442e-06	5.750682e-10	1.617883e+01	1.573995e+02
2.350000e-06	3.055754e-06	5.865612e-10	1.647708e+01	1.603268e+02
2.360000e-06	3.110941e-06	5.961378e-10	1.677466e+01	1.632069e+02
2.370000e-06	3.165887e-06	6.036100e-10	1.707094e+01	1.660411e+02
2.380000e-06	3.220567e-06	6.113812e-10	1.736578e+01	1.688308e+02
2.390000e-06	3.274998e-06	6.215406e-10	1.765928e+01	1.715775e+02
2.400000e-06	3.329168e-06	6.343031e-10	1.795137e+01	1.742827e+02
2.410000e-06	3.383125e-06	6.467357e-10	1.824232e+01	1.769476e+02
2.420000e-06	3.436905e-06	6.576636e-10	1.853231e+01	1.795739e+02
2.430000e-06	3.490434e-06	6.678698e-10	1.882094e+01	1.821629e+02
2.440000e-06	3.543728e-06	6.777244e-10	1.910832e+01	1.847160e+02
2.450000e-06	3.596811e-06	6.875267e-10	1.939455e+01	1.872345e+02
2.460000e-06	3.649626e-06	6.960200e-10	1.967933e+01	1.897197e+02
2.470000e-06	3.702178e-06	7.037908e-10	1.996270e+01	1.921728e+02
2.480000e-06	3.754297e-06	7.125913e-10	2.024373e+01	1.945949e+02
2.490000e-06	3.806080e-06	7.226093e-10	2.052295e+01	1.969872e+02
2.500000e-06	3.857663e-06	7.329797e-10	2.080110e+01	1.993504e+02
2.510000e-06	3.909010e-06	7.414875e-10	2.107797e+01	2.016856e+02
2.520000e-06	3.960211e-06	7.485722e-10	2.135405e+01	2.039934e+02
2.530000e-06	4.011026e-06	7.563332e-10	2.162805e+01	2.062745e+02
2.540000e-06	4.061262e-06	7.648011e-10	2.189893e+01	2.085295e+02
2.550000e-06	4.111023e-06	7.726503e-10	2.216725e+01	2.107589e+02
2.560000e-06	4.160365e-06	7.792525e-10	2.243331e+01	2.129629e+02
2.570000e-06	4.209196e-06	7.855995e-10	2.269662e+01	2.151418e+02
2.580000e-06	4.257474e-06	7.929272e-10	2.295694e+01	2.172959e+02
2.590000e-06	4.305519e-06	8.012947e-10	2.321601e+01	2.194251e+02
2.600000e-06	4.353371e-06	8.100660e-10	2.347403e+01	2.215296e+02
2.610000e-06	4.400934e-06	8.186620e-10	2.373050e+01	2.236092e+02
2.620000e-06	4.448270e-06	8.266234e-10	2.398574e+01	2.256638e+02
2.630000e-06	4.495353e-06	8.340964e-10	2.423962e+01	2.276933e+02
2.640000e-06	4.542206e-06	8.419420e-10	2.449226e+01	2.296975e+02
2.650000e-06	4.588902e-06	8.495183e-10	2.474405e+01	2.316761e+02
2.660000e-06	4.635139e-06	8.558025e-10	2.499336e+01	2.336290e+02
2.670000e-06	4.680857e-06	8.612437e-10	2.523989e+01	2.355557e+02
2.680000e-06	4.726263e-06	8.672829e-10	2.548472e+01	2.374562e+02
2.690000e-06	4.771370e-06	8.746342e-10	2.572795e+01	2.393301e+02
2.700000e-06	4.816166e-06	8.817144e-10	2.596949e+01	2.411773e+02
2.710000e-06	4.860655e-06	8.882455e-10	2.620938e+01	2.429975e+02
2.720000e-06	4.904815e-06	8.953841e-10	2.644750e+01	2.447907e+02
2.730000e-06	4.948585e-06	9.026436e-10	2.668352e+01	2.465566e+02
2.740000e-06	4.992164e-06	9.100284e-10	2.691850e+01	2.482952e+02
2.750000e-06	5.035589e-06	9.175458e-10	2.715265e+01	2.500064e+02
2.760000e-06	5.078819e-06	9.235714e-10	2.738575e+01	2.516903e+02
2.770000e-06	5.121693e-06	9.289067e-10	2.761694e+01	2.533469e+02
2.780000e-06	5.163924e-06	9.358759e-10	2.784466e+01	2.549763e+02
2.790000e-06	5.205441e-06	9.434519e-10	2.806852e+01	2.565786e+02
2.800000e-06	5.246331e-06	9.498350e-10	2.828900e+01	2.581541e+02
2.810000e-06	5.286646e-06	9.564510e-10	2.850639e+01	2.597028e+02
2.820000e-06	5.326552e-06	9.636639e-10	2.872157e+01	2.612252e+02
2.830000e-06	5.366219e-06	9.704541e-10	2.893546e+01	2.627214e+02
2.840000e-06	5.405713e-06	9.770429e-10	2.914842e+01	2.641917e+02
2.850000e-06	5.444950e-06	9.831651e-10	2.935999e+01	2.656365e+02
2.860000e-06	5.483926e-06	9.878171e-10	2.957016e+01	2.670562e+02
2.870000e-06	5.522615e-06	9.916429e-10	2.977877e+01	2.684510e+02
2.880000e-06	5.560861e-06	9.972513e-10	2.998500e+01	2.698214e+02
2.890000e-06	5.598562e-06	1.003377e-09	3.018829e+01	2.711677e+02
2.900000e-06	5.635679e-06	1.008474e-09	3.038843e+01	2.724902e+02
