# Temperatura_=_-20.2
# Concentracion g/m^3_=_7400.0
# C_Vs_to_Am_M_A/Vsm_=_254322799225.57578
# pendiente_HvsI_1/m_=_3716.3
# ordenada_HvsI_A/m_=_1297.0
# frecuencia_Hz_=_136118.1971101111

Tiempo_(s)	Campo_(V.s)	Magnetizacion_(V.s)	Campo_(kA/m)	Magnetizacion_(A/m)
0.000000e+00	-7.092075e-06	-1.250378e-09	-3.842059e+01	-3.152301e+02
1.000000e-08	-7.092217e-06	-1.249491e-09	-3.842135e+01	-3.151648e+02
2.000000e-08	-7.092047e-06	-1.248578e-09	-3.842043e+01	-3.150838e+02
3.000000e-08	-7.091304e-06	-1.247182e-09	-3.841641e+01	-3.149875e+02
4.000000e-08	-7.089819e-06	-1.246075e-09	-3.840836e+01	-3.148761e+02
5.000000e-08	-7.087670e-06	-1.245403e-09	-3.839672e+01	-3.147499e+02
6.000000e-08	-7.084860e-06	-1.244862e-09	-3.838150e+01	-3.146090e+02
7.000000e-08	-7.081464e-06	-1.245680e-09	-3.836310e+01	-3.144537e+02
8.000000e-08	-7.077631e-06	-1.248530e-09	-3.834234e+01	-3.142842e+02
9.000000e-08	-7.073287e-06	-1.244127e-09	-3.831880e+01	-3.141008e+02
1.000000e-07	-7.068148e-06	-1.215992e-09	-3.829096e+01	-3.139039e+02
1.100000e-07	-7.062298e-06	-1.201357e-09	-3.825927e+01	-3.136936e+02
1.200000e-07	-7.056196e-06	-1.258361e-09	-3.822622e+01	-3.134705e+02
1.300000e-07	-7.049962e-06	-1.301226e-09	-3.819244e+01	-3.132348e+02
1.400000e-07	-7.043221e-06	-1.229385e-09	-3.815592e+01	-3.129871e+02
1.500000e-07	-7.035890e-06	-1.165095e-09	-3.811621e+01	-3.127279e+02
1.600000e-07	-7.028275e-06	-1.246189e-09	-3.807496e+01	-3.124578e+02
1.700000e-07	-7.020331e-06	-1.313057e-09	-3.803192e+01	-3.121772e+02
1.800000e-07	-7.011875e-06	-1.198895e-09	-3.798611e+01	-3.118870e+02
1.900000e-07	-7.002592e-06	-1.121733e-09	-3.793582e+01	-3.115878e+02
2.000000e-07	-6.992633e-06	-1.256100e-09	-3.788187e+01	-3.112804e+02
2.100000e-07	-6.982262e-06	-1.338183e-09	-3.782569e+01	-3.109654e+02
2.200000e-07	-6.971187e-06	-1.191565e-09	-3.776569e+01	-3.106436e+02
2.300000e-07	-6.959378e-06	-1.116617e-09	-3.770171e+01	-3.103158e+02
2.400000e-07	-6.947118e-06	-1.247585e-09	-3.763529e+01	-3.099827e+02
2.500000e-07	-6.934343e-06	-1.285478e-09	-3.756609e+01	-3.096451e+02
2.600000e-07	-6.921007e-06	-1.164196e-09	-3.749384e+01	-3.093035e+02
2.700000e-07	-6.907158e-06	-1.166828e-09	-3.741881e+01	-3.089587e+02
2.800000e-07	-6.892675e-06	-1.265451e-09	-3.734035e+01	-3.086111e+02
2.900000e-07	-6.877287e-06	-1.220712e-09	-3.725699e+01	-3.082612e+02
3.000000e-07	-6.861132e-06	-1.151964e-09	-3.716947e+01	-3.079093e+02
3.100000e-07	-6.844521e-06	-1.214083e-09	-3.707949e+01	-3.075558e+02
3.200000e-07	-6.827424e-06	-1.226125e-09	-3.698687e+01	-3.072008e+02
3.300000e-07	-6.809938e-06	-1.139785e-09	-3.689214e+01	-3.068442e+02
3.400000e-07	-6.792096e-06	-1.183119e-09	-3.679548e+01	-3.064861e+02
3.500000e-07	-6.773854e-06	-1.266286e-09	-3.669666e+01	-3.061261e+02
3.600000e-07	-6.755106e-06	-1.177632e-09	-3.659509e+01	-3.057639e+02
3.700000e-07	-6.735806e-06	-1.111046e-09	-3.649053e+01	-3.053992e+02
3.800000e-07	-6.716158e-06	-1.214786e-09	-3.638409e+01	-3.050312e+02
3.900000e-07	-6.696269e-06	-1.233779e-09	-3.627635e+01	-3.046594e+02
4.000000e-07	-6.675957e-06	-1.129179e-09	-3.616631e+01	-3.042830e+02
4.100000e-07	-6.655003e-06	-1.151218e-09	-3.605279e+01	-3.039010e+02
4.200000e-07	-6.633480e-06	-1.225540e-09	-3.593619e+01	-3.035127e+02
4.300000e-07	-6.611538e-06	-1.170853e-09	-3.581733e+01	-3.031171e+02
4.400000e-07	-6.589262e-06	-1.137999e-09	-3.569665e+01	-3.027131e+02
4.500000e-07	-6.566605e-06	-1.192475e-09	-3.557391e+01	-3.022997e+02
4.600000e-07	-6.543480e-06	-1.170484e-09	-3.544863e+01	-3.018760e+02
4.700000e-07	-6.519926e-06	-1.129374e-09	-3.532102e+01	-3.014410e+02
4.800000e-07	-6.495995e-06	-1.179650e-09	-3.519138e+01	-3.009938e+02
4.900000e-07	-6.471673e-06	-1.187088e-09	-3.505962e+01	-3.005334e+02
5.000000e-07	-6.446786e-06	-1.125385e-09	-3.492480e+01	-3.000591e+02
5.100000e-07	-6.421139e-06	-1.140064e-09	-3.478586e+01	-2.995701e+02
5.200000e-07	-6.394655e-06	-1.177180e-09	-3.464238e+01	-2.990659e+02
5.300000e-07	-6.367576e-06	-1.142099e-09	-3.449569e+01	-2.985459e+02
5.400000e-07	-6.340116e-06	-1.127914e-09	-3.434692e+01	-2.980097e+02
5.500000e-07	-6.312388e-06	-1.155835e-09	-3.419671e+01	-2.974570e+02
5.600000e-07	-6.284329e-06	-1.142642e-09	-3.404471e+01	-2.968877e+02
5.700000e-07	-6.255870e-06	-1.126472e-09	-3.389053e+01	-2.963017e+02
5.800000e-07	-6.226911e-06	-1.142709e-09	-3.373365e+01	-2.956990e+02
5.900000e-07	-6.197487e-06	-1.135297e-09	-3.357425e+01	-2.950798e+02
6.000000e-07	-6.167728e-06	-1.117112e-09	-3.341303e+01	-2.944443e+02
6.100000e-07	-6.137600e-06	-1.128664e-09	-3.324981e+01	-2.937928e+02
6.200000e-07	-6.107054e-06	-1.131910e-09	-3.308434e+01	-2.931257e+02
6.300000e-07	-6.076013e-06	-1.117486e-09	-3.291618e+01	-2.924434e+02
6.400000e-07	-6.044639e-06	-1.116516e-09	-3.274621e+01	-2.917464e+02
6.500000e-07	-6.013043e-06	-1.116060e-09	-3.257504e+01	-2.910351e+02
6.600000e-07	-5.981113e-06	-1.107978e-09	-3.240207e+01	-2.903099e+02
6.700000e-07	-5.948694e-06	-1.108996e-09	-3.222644e+01	-2.895713e+02
6.800000e-07	-5.915530e-06	-1.107722e-09	-3.204678e+01	-2.888196e+02
6.900000e-07	-5.881580e-06	-1.098379e-09	-3.186286e+01	-2.880551e+02
7.000000e-07	-5.847010e-06	-1.095155e-09	-3.167557e+01	-2.872780e+02
7.100000e-07	-5.811959e-06	-1.093208e-09	-3.148569e+01	-2.864885e+02
7.200000e-07	-5.776575e-06	-1.088191e-09	-3.129400e+01	-2.856867e+02
7.300000e-07	-5.740936e-06	-1.086496e-09	-3.110093e+01	-2.848723e+02
7.400000e-07	-5.705160e-06	-1.082621e-09	-3.090712e+01	-2.840452e+02
7.500000e-07	-5.669095e-06	-1.075879e-09	-3.071174e+01	-2.832052e+02
7.600000e-07	-5.632546e-06	-1.075324e-09	-3.051374e+01	-2.823517e+02
7.700000e-07	-5.595581e-06	-1.074606e-09	-3.031348e+01	-2.814843e+02
7.800000e-07	-5.558218e-06	-1.067661e-09	-3.011107e+01	-2.806022e+02
7.900000e-07	-5.520460e-06	-1.061038e-09	-2.990652e+01	-2.797049e+02
8.000000e-07	-5.482206e-06	-1.056935e-09	-2.969929e+01	-2.787913e+02
8.100000e-07	-5.443349e-06	-1.052301e-09	-2.948878e+01	-2.778607e+02
8.200000e-07	-5.404059e-06	-1.048367e-09	-2.927593e+01	-2.769121e+02
8.300000e-07	-5.364627e-06	-1.043571e-09	-2.906231e+01	-2.759446e+02
8.400000e-07	-5.325050e-06	-1.037877e-09	-2.884791e+01	-2.749570e+02
8.500000e-07	-5.285202e-06	-1.033237e-09	-2.863204e+01	-2.739486e+02
8.600000e-07	-5.244980e-06	-1.029821e-09	-2.841414e+01	-2.729182e+02
8.700000e-07	-5.204433e-06	-1.025257e-09	-2.819448e+01	-2.718650e+02
8.800000e-07	-5.163608e-06	-1.018864e-09	-2.797332e+01	-2.707882e+02
8.900000e-07	-5.122102e-06	-1.011643e-09	-2.774846e+01	-2.696870e+02
9.000000e-07	-5.079621e-06	-1.005215e-09	-2.751832e+01	-2.685607e+02
9.100000e-07	-5.036465e-06	-1.000136e-09	-2.728453e+01	-2.674087e+02
9.200000e-07	-4.993010e-06	-9.945761e-10	-2.704912e+01	-2.662308e+02
9.300000e-07	-4.949385e-06	-9.879795e-10	-2.681279e+01	-2.650264e+02
9.400000e-07	-4.905587e-06	-9.824956e-10	-2.657551e+01	-2.637955e+02
9.500000e-07	-4.861568e-06	-9.789312e-10	-2.633704e+01	-2.625380e+02
9.600000e-07	-4.817302e-06	-9.748918e-10	-2.609724e+01	-2.612541e+02
9.700000e-07	-4.772800e-06	-9.692694e-10	-2.585615e+01	-2.599439e+02
9.800000e-07	-4.727917e-06	-9.630325e-10	-2.561300e+01	-2.586077e+02
9.900000e-07	-4.682543e-06	-9.567580e-10	-2.536719e+01	-2.572461e+02
1.000000e-06	-4.636765e-06	-9.508363e-10	-2.511920e+01	-2.558595e+02
1.010000e-06	-4.590718e-06	-9.455953e-10	-2.486974e+01	-2.544485e+02
1.020000e-06	-4.544514e-06	-9.392907e-10	-2.461944e+01	-2.530139e+02
1.030000e-06	-4.497941e-06	-9.321302e-10	-2.436713e+01	-2.515562e+02
1.040000e-06	-4.450855e-06	-9.257278e-10	-2.411205e+01	-2.500762e+02
1.050000e-06	-4.403432e-06	-9.212154e-10	-2.385514e+01	-2.485745e+02
1.060000e-06	-4.355826e-06	-9.167738e-10	-2.359724e+01	-2.470519e+02
1.070000e-06	-4.308048e-06	-9.114376e-10	-2.333841e+01	-2.455089e+02
1.080000e-06	-4.260054e-06	-9.055112e-10	-2.307840e+01	-2.439459e+02
1.090000e-06	-4.211815e-06	-8.986502e-10	-2.281707e+01	-2.423636e+02
1.100000e-06	-4.163154e-06	-8.915680e-10	-2.255346e+01	-2.407620e+02
1.110000e-06	-4.113954e-06	-8.847807e-10	-2.228692e+01	-2.391416e+02
1.120000e-06	-4.064247e-06	-8.776896e-10	-2.201764e+01	-2.375022e+02
1.130000e-06	-4.014157e-06	-8.709124e-10	-2.174628e+01	-2.358438e+02
1.140000e-06	-3.963692e-06	-8.653434e-10	-2.147289e+01	-2.341661e+02
1.150000e-06	-3.912736e-06	-8.599740e-10	-2.119684e+01	-2.324687e+02
1.160000e-06	-3.861410e-06	-8.535032e-10	-2.091879e+01	-2.307512e+02
1.170000e-06	-3.809928e-06	-8.459407e-10	-2.063989e+01	-2.290128e+02
1.180000e-06	-3.758196e-06	-8.381273e-10	-2.035964e+01	-2.272526e+02
1.190000e-06	-3.706042e-06	-8.303384e-10	-2.007710e+01	-2.254698e+02
1.200000e-06	-3.653687e-06	-8.231865e-10	-1.979347e+01	-2.236634e+02
1.210000e-06	-3.601122e-06	-8.168221e-10	-1.950871e+01	-2.218322e+02
1.220000e-06	-3.548267e-06	-8.102204e-10	-1.922237e+01	-2.199751e+02
1.230000e-06	-3.495122e-06	-8.031537e-10	-1.893446e+01	-2.180908e+02
1.240000e-06	-3.441709e-06	-7.959285e-10	-1.864511e+01	-2.161782e+02
1.250000e-06	-3.388187e-06	-7.894253e-10	-1.835515e+01	-2.142361e+02
1.260000e-06	-3.334420e-06	-7.828619e-10	-1.806388e+01	-2.122633e+02
1.270000e-06	-3.280410e-06	-7.749657e-10	-1.777128e+01	-2.102587e+02
1.280000e-06	-3.226039e-06	-7.671544e-10	-1.747674e+01	-2.082215e+02
1.290000e-06	-3.171273e-06	-7.597245e-10	-1.718004e+01	-2.061506e+02
1.300000e-06	-3.116305e-06	-7.515903e-10	-1.688226e+01	-2.040453e+02
1.310000e-06	-3.061178e-06	-7.426570e-10	-1.658361e+01	-2.019051e+02
1.320000e-06	-3.005927e-06	-7.341694e-10	-1.628430e+01	-1.997295e+02
1.330000e-06	-2.950483e-06	-7.254878e-10	-1.598394e+01	-1.975182e+02
1.340000e-06	-2.894870e-06	-7.155122e-10	-1.568266e+01	-1.952712e+02
1.350000e-06	-2.839178e-06	-7.061927e-10	-1.538096e+01	-1.929886e+02
1.360000e-06	-2.783388e-06	-6.980620e-10	-1.507872e+01	-1.906705e+02
1.370000e-06	-2.727499e-06	-6.898171e-10	-1.477594e+01	-1.883175e+02
1.380000e-06	-2.671575e-06	-6.816487e-10	-1.447299e+01	-1.859302e+02
1.390000e-06	-2.615547e-06	-6.733324e-10	-1.416945e+01	-1.835092e+02
1.400000e-06	-2.559266e-06	-6.643219e-10	-1.386456e+01	-1.810555e+02
1.410000e-06	-2.502629e-06	-6.544290e-10	-1.355773e+01	-1.785701e+02
1.420000e-06	-2.445768e-06	-6.442952e-10	-1.324970e+01	-1.760539e+02
1.430000e-06	-2.388664e-06	-6.348161e-10	-1.294034e+01	-1.735081e+02
1.440000e-06	-2.331316e-06	-6.250944e-10	-1.262966e+01	-1.709337e+02
1.450000e-06	-2.273709e-06	-6.150208e-10	-1.231758e+01	-1.683321e+02
1.460000e-06	-2.215765e-06	-6.052108e-10	-1.200368e+01	-1.657041e+02
1.470000e-06	-2.157502e-06	-5.950980e-10	-1.168804e+01	-1.630509e+02
1.480000e-06	-2.098950e-06	-5.846726e-10	-1.137085e+01	-1.603734e+02
1.490000e-06	-2.040167e-06	-5.739221e-10	-1.105239e+01	-1.576724e+02
1.500000e-06	-1.981168e-06	-5.632378e-10	-1.073277e+01	-1.549486e+02
1.510000e-06	-1.922074e-06	-5.526692e-10	-1.041264e+01	-1.522024e+02
1.520000e-06	-1.862824e-06	-5.420525e-10	-1.009165e+01	-1.494343e+02
1.530000e-06	-1.803444e-06	-5.312459e-10	-9.769972e+00	-1.466444e+02
1.540000e-06	-1.744005e-06	-5.203615e-10	-9.447969e+00	-1.438325e+02
1.550000e-06	-1.684433e-06	-5.098348e-10	-9.125240e+00	-1.409984e+02
1.560000e-06	-1.624739e-06	-4.991099e-10	-8.801855e+00	-1.381415e+02
1.570000e-06	-1.564987e-06	-4.884371e-10	-8.478154e+00	-1.352611e+02
1.580000e-06	-1.505177e-06	-4.781207e-10	-8.154141e+00	-1.323562e+02
1.590000e-06	-1.445332e-06	-4.667784e-10	-7.829940e+00	-1.294257e+02
1.600000e-06	-1.385393e-06	-4.539985e-10	-7.505223e+00	-1.264682e+02
1.610000e-06	-1.325428e-06	-4.413973e-10	-7.180371e+00	-1.234822e+02
1.620000e-06	-1.265529e-06	-4.294821e-10	-6.855874e+00	-1.204661e+02
1.630000e-06	-1.205535e-06	-4.186482e-10	-6.530860e+00	-1.174181e+02
1.640000e-06	-1.145404e-06	-4.079282e-10	-6.205110e+00	-1.143362e+02
1.650000e-06	-1.085198e-06	-3.963552e-10	-5.878948e+00	-1.112187e+02
1.660000e-06	-1.024910e-06	-3.848981e-10	-5.552343e+00	-1.080634e+02
1.670000e-06	-9.646404e-07	-3.734393e-10	-5.225840e+00	-1.048686e+02
1.680000e-06	-9.043354e-07	-3.611959e-10	-4.899144e+00	-1.016322e+02
1.690000e-06	-8.439052e-07	-3.482264e-10	-4.571769e+00	-9.835245e+01
1.700000e-06	-7.834216e-07	-3.356167e-10	-4.244106e+00	-9.502763e+01
1.710000e-06	-7.228748e-07	-3.239722e-10	-3.916100e+00	-9.165615e+01
1.720000e-06	-6.622396e-07	-3.122254e-10	-3.587615e+00	-8.823659e+01
1.730000e-06	-6.015196e-07	-3.000341e-10	-3.258670e+00	-8.476773e+01
1.740000e-06	-5.407971e-07	-2.875664e-10	-2.929712e+00	-8.124858e+01
1.750000e-06	-4.801617e-07	-2.741805e-10	-2.601226e+00	-7.767838e+01
1.760000e-06	-4.195138e-07	-2.599871e-10	-2.272673e+00	-7.405664e+01
1.770000e-06	-3.587823e-07	-2.458049e-10	-1.943666e+00	-7.038313e+01
1.780000e-06	-2.980040e-07	-2.324165e-10	-1.614406e+00	-6.665792e+01
1.790000e-06	-2.372547e-07	-2.192333e-10	-1.285303e+00	-6.288136e+01
1.800000e-06	-1.764043e-07	-2.051627e-10	-9.556523e-01	-5.905410e+01
1.810000e-06	-1.154513e-07	-1.902310e-10	-6.254455e-01	-5.517708e+01
1.820000e-06	-5.458035e-08	-1.752610e-10	-2.956834e-01	-5.125153e+01
1.830000e-06	6.225808e-09	-1.602252e-10	3.372767e-02	-4.727895e+01
1.840000e-06	6.690615e-08	-1.447599e-10	3.624572e-01	-4.326112e+01
1.850000e-06	1.275471e-07	-1.293127e-10	6.909734e-01	-3.920008e+01
1.860000e-06	1.883171e-07	-1.145060e-10	1.020188e+00	-3.509810e+01
1.870000e-06	2.491204e-07	-1.004410e-10	1.349584e+00	-3.095766e+01
1.880000e-06	3.099191e-07	-8.623442e-11	1.678955e+00	-2.678147e+01
1.890000e-06	3.707120e-07	-7.166135e-11	2.008294e+00	-2.257240e+01
1.900000e-06	4.313758e-07	-5.675700e-11	2.336934e+00	-1.833348e+01
1.910000e-06	4.919559e-07	-4.126391e-11	2.665120e+00	-1.406789e+01
1.920000e-06	5.524507e-07	-2.619501e-11	2.992845e+00	-9.778899e+00
1.930000e-06	6.129636e-07	-1.197342e-11	3.320667e+00	-5.469894e+00
1.940000e-06	6.735251e-07	3.251343e-12	3.648753e+00	-1.144322e+00
1.950000e-06	7.339621e-07	2.012389e-11	3.976164e+00	3.194317e+00
1.960000e-06	7.943509e-07	3.709144e-11	4.303314e+00	7.542492e+00
1.970000e-06	8.546790e-07	5.285607e-11	4.630135e+00	1.189666e+01
1.980000e-06	9.149114e-07	6.735570e-11	4.956438e+00	1.625327e+01
1.990000e-06	9.751646e-07	8.202933e-11	5.282854e+00	2.060880e+01
2.000000e-06	1.035414e-06	9.738693e-11	5.609249e+00	2.495977e+01
2.010000e-06	1.095573e-06	1.126792e-10	5.935152e+00	2.930272e+01
2.020000e-06	1.155611e-06	1.284833e-10	6.260405e+00	3.363427e+01
2.030000e-06	1.215547e-06	1.451046e-10	6.585098e+00	3.795110e+01
2.040000e-06	1.275432e-06	1.611766e-10	6.909523e+00	4.224994e+01
2.050000e-06	1.335313e-06	1.763331e-10	7.233918e+00	4.652765e+01
2.060000e-06	1.395144e-06	1.911563e-10	7.558048e+00	5.078115e+01
2.070000e-06	1.454900e-06	2.060674e-10	7.881770e+00	5.500746e+01
2.080000e-06	1.514623e-06	2.210392e-10	8.205316e+00	5.920371e+01
2.090000e-06	1.574284e-06	2.358703e-10	8.528519e+00	6.336716e+01
2.100000e-06	1.633860e-06	2.506930e-10	8.851266e+00	6.749516e+01
2.110000e-06	1.693375e-06	2.651155e-10	9.173682e+00	7.158518e+01
2.120000e-06	1.752887e-06	2.788903e-10	9.496085e+00	7.563486e+01
2.130000e-06	1.812364e-06	2.924273e-10	9.818294e+00	7.964192e+01
2.140000e-06	1.871669e-06	3.069074e-10	1.013958e+01	8.360428e+01
2.150000e-06	1.930825e-06	3.217103e-10	1.046004e+01	8.751997e+01
2.160000e-06	1.989916e-06	3.357587e-10	1.078017e+01	9.138718e+01
2.170000e-06	2.048811e-06	3.494097e-10	1.109922e+01	9.520430e+01
2.180000e-06	2.107388e-06	3.627333e-10	1.141656e+01	9.896985e+01
2.190000e-06	2.165724e-06	3.756397e-10	1.173259e+01	1.026826e+02
2.200000e-06	2.223831e-06	3.879091e-10	1.204738e+01	1.063413e+02
2.210000e-06	2.281707e-06	4.004773e-10	1.236091e+01	1.099452e+02
2.220000e-06	2.339314e-06	4.143689e-10	1.267299e+01	1.134935e+02
2.230000e-06	2.396538e-06	4.281777e-10	1.298300e+01	1.169857e+02
2.240000e-06	2.453459e-06	4.407239e-10	1.329136e+01	1.204216e+02
2.250000e-06	2.510148e-06	4.529125e-10	1.359847e+01	1.238009e+02
2.260000e-06	2.566582e-06	4.647563e-10	1.390419e+01	1.271239e+02
2.270000e-06	2.622827e-06	4.762145e-10	1.420890e+01	1.303907e+02
2.280000e-06	2.678924e-06	4.884186e-10	1.451280e+01	1.336020e+02
2.290000e-06	2.734910e-06	5.002037e-10	1.481609e+01	1.367584e+02
2.300000e-06	2.790732e-06	5.109830e-10	1.511850e+01	1.398608e+02
2.310000e-06	2.846360e-06	5.225319e-10	1.541986e+01	1.429102e+02
2.320000e-06	2.901821e-06	5.353286e-10	1.572032e+01	1.459080e+02
2.330000e-06	2.957154e-06	5.486162e-10	1.602008e+01	1.488554e+02
2.340000e-06	3.012357e-06	5.606576e-10	1.631913e+01	1.517539e+02
2.350000e-06	3.067291e-06	5.709532e-10	1.661673e+01	1.546053e+02
2.360000e-06	3.121975e-06	5.801526e-10	1.691298e+01	1.574112e+02
2.370000e-06	3.176399e-06	5.885964e-10	1.720782e+01	1.601735e+02
2.380000e-06	3.230560e-06	5.967994e-10	1.750122e+01	1.628939e+02
2.390000e-06	3.284714e-06	6.061995e-10	1.779460e+01	1.655743e+02
2.400000e-06	3.338792e-06	6.171715e-10	1.808756e+01	1.682168e+02
2.410000e-06	3.392500e-06	6.286339e-10	1.837852e+01	1.708230e+02
2.420000e-06	3.445877e-06	6.396344e-10	1.866768e+01	1.733950e+02
2.430000e-06	3.498992e-06	6.495850e-10	1.895543e+01	1.759345e+02
2.440000e-06	3.551764e-06	6.591111e-10	1.924132e+01	1.784431e+02
2.450000e-06	3.604239e-06	6.684238e-10	1.952559e+01	1.809225e+02
2.460000e-06	3.656492e-06	6.773467e-10	1.980867e+01	1.833743e+02
2.470000e-06	3.708552e-06	6.863601e-10	2.009070e+01	1.857997e+02
2.480000e-06	3.760432e-06	6.948788e-10	2.037175e+01	1.882000e+02
2.490000e-06	3.812070e-06	7.025993e-10	2.065150e+01	1.905763e+02
2.500000e-06	3.863403e-06	7.101191e-10	2.092959e+01	1.929295e+02
2.510000e-06	3.914269e-06	7.182803e-10	2.120515e+01	1.952603e+02
2.520000e-06	3.964784e-06	7.270491e-10	2.147881e+01	1.975694e+02
2.530000e-06	4.014889e-06	7.356090e-10	2.175025e+01	1.998571e+02
2.540000e-06	4.064390e-06	7.441932e-10	2.201841e+01	2.021237e+02
2.550000e-06	4.113477e-06	7.520848e-10	2.228434e+01	2.043693e+02
2.560000e-06	4.162099e-06	7.590322e-10	2.254774e+01	2.065938e+02
2.570000e-06	4.210256e-06	7.654699e-10	2.280863e+01	2.087972e+02
2.580000e-06	4.258226e-06	7.722312e-10	2.306850e+01	2.109790e+02
2.590000e-06	4.306020e-06	7.804437e-10	2.332742e+01	2.131389e+02
2.600000e-06	4.353673e-06	7.894617e-10	2.358558e+01	2.152763e+02
2.610000e-06	4.400972e-06	7.978355e-10	2.384181e+01	2.173908e+02
2.620000e-06	4.447833e-06	8.052477e-10	2.409568e+01	2.194816e+02
2.630000e-06	4.494473e-06	8.117325e-10	2.434834e+01	2.215481e+02
2.640000e-06	4.540872e-06	8.185502e-10	2.459971e+01	2.235896e+02
2.650000e-06	4.586974e-06	8.260736e-10	2.484946e+01	2.256054e+02
2.660000e-06	4.632707e-06	8.328693e-10	2.509721e+01	2.275948e+02
2.670000e-06	4.678132e-06	8.389395e-10	2.534330e+01	2.295572e+02
2.680000e-06	4.723218e-06	8.451576e-10	2.558755e+01	2.314920e+02
2.690000e-06	4.767918e-06	8.523096e-10	2.582970e+01	2.333986e+02
2.700000e-06	4.812289e-06	8.594295e-10	2.607008e+01	2.352765e+02
2.710000e-06	4.856423e-06	8.660277e-10	2.630917e+01	2.371253e+02
2.720000e-06	4.900342e-06	8.731597e-10	2.654710e+01	2.389446e+02
2.730000e-06	4.944063e-06	8.810776e-10	2.678395e+01	2.407342e+02
2.740000e-06	4.987634e-06	8.888377e-10	2.701999e+01	2.424939e+02
2.750000e-06	5.030897e-06	8.956104e-10	2.725436e+01	2.442235e+02
2.760000e-06	5.073583e-06	9.015406e-10	2.748561e+01	2.459232e+02
2.770000e-06	5.115714e-06	9.071942e-10	2.771386e+01	2.475930e+02
2.780000e-06	5.157176e-06	9.136090e-10	2.793847e+01	2.492329e+02
2.790000e-06	5.197976e-06	9.205818e-10	2.815950e+01	2.508432e+02
2.800000e-06	5.238385e-06	9.275866e-10	2.837841e+01	2.524241e+02
2.810000e-06	5.278434e-06	9.348859e-10	2.859537e+01	2.539761e+02
2.820000e-06	5.318185e-06	9.418247e-10	2.881072e+01	2.554993e+02
2.830000e-06	5.357749e-06	9.480784e-10	2.902505e+01	2.569942e+02
2.840000e-06	5.397162e-06	9.545811e-10	2.923857e+01	2.584613e+02
2.850000e-06	5.436188e-06	9.610553e-10	2.944999e+01	2.599009e+02
2.860000e-06	5.474695e-06	9.657948e-10	2.965860e+01	2.613135e+02
2.870000e-06	5.512719e-06	9.700332e-10	2.986459e+01	2.626995e+02
2.880000e-06	5.550343e-06	9.757573e-10	3.006841e+01	2.640594e+02
2.890000e-06	5.587627e-06	9.818542e-10	3.027040e+01	2.653937e+02
2.900000e-06	5.624528e-06	9.871540e-10	3.047030e+01	2.667026e+02
