# Temperatura_=_-7.2
# Concentracion g/m^3_=_7400.0
# C_Vs_to_Am_M_A/Vsm_=_254322799225.57578
# pendiente_HvsI_1/m_=_3716.3
# ordenada_HvsI_A/m_=_1297.0
# frecuencia_Hz_=_136115.40862056348

Tiempo_(s)	Campo_(V.s)	Magnetizacion_(V.s)	Campo_(kA/m)	Magnetizacion_(A/m)
0.000000e+00	-7.137735e-06	-1.282497e-09	-3.842046e+01	-3.237865e+02
1.000000e-08	-7.138048e-06	-1.282284e-09	-3.842214e+01	-3.237769e+02
2.000000e-08	-7.137852e-06	-1.283131e-09	-3.842109e+01	-3.237449e+02
3.000000e-08	-7.137036e-06	-1.283159e-09	-3.841670e+01	-3.236902e+02
4.000000e-08	-7.135653e-06	-1.282186e-09	-3.840925e+01	-3.236125e+02
5.000000e-08	-7.133563e-06	-1.281447e-09	-3.839800e+01	-3.235117e+02
6.000000e-08	-7.130730e-06	-1.280143e-09	-3.838275e+01	-3.233880e+02
7.000000e-08	-7.127317e-06	-1.275829e-09	-3.836438e+01	-3.232414e+02
8.000000e-08	-7.123454e-06	-1.277101e-09	-3.834359e+01	-3.230722e+02
9.000000e-08	-7.119086e-06	-1.292483e-09	-3.832008e+01	-3.228812e+02
1.000000e-07	-7.114015e-06	-1.289690e-09	-3.829278e+01	-3.226688e+02
1.100000e-07	-7.108407e-06	-1.251940e-09	-3.826260e+01	-3.224360e+02
1.200000e-07	-7.102514e-06	-1.253331e-09	-3.823088e+01	-3.221838e+02
1.300000e-07	-7.096252e-06	-1.304619e-09	-3.819717e+01	-3.219134e+02
1.400000e-07	-7.089454e-06	-1.302096e-09	-3.816058e+01	-3.216262e+02
1.500000e-07	-7.082190e-06	-1.233422e-09	-3.812148e+01	-3.213236e+02
1.600000e-07	-7.074616e-06	-1.235519e-09	-3.808071e+01	-3.210071e+02
1.700000e-07	-7.066576e-06	-1.316584e-09	-3.803743e+01	-3.206784e+02
1.800000e-07	-7.057734e-06	-1.302477e-09	-3.798984e+01	-3.203392e+02
1.900000e-07	-7.048148e-06	-1.208039e-09	-3.793824e+01	-3.199913e+02
2.000000e-07	-7.038014e-06	-1.223451e-09	-3.788369e+01	-3.196362e+02
2.100000e-07	-7.027429e-06	-1.315011e-09	-3.782671e+01	-3.192757e+02
2.200000e-07	-7.016257e-06	-1.284715e-09	-3.776658e+01	-3.189113e+02
2.300000e-07	-7.004403e-06	-1.202791e-09	-3.770277e+01	-3.185446e+02
2.400000e-07	-6.992000e-06	-1.240528e-09	-3.763601e+01	-3.181769e+02
2.500000e-07	-6.978890e-06	-1.297076e-09	-3.756544e+01	-3.178094e+02
2.600000e-07	-6.965256e-06	-1.240593e-09	-3.749205e+01	-3.174431e+02
2.700000e-07	-6.951165e-06	-1.204801e-09	-3.741621e+01	-3.170788e+02
2.800000e-07	-6.936231e-06	-1.258169e-09	-3.733582e+01	-3.167170e+02
2.900000e-07	-6.920462e-06	-1.255399e-09	-3.725094e+01	-3.163581e+02
3.000000e-07	-6.904299e-06	-1.204086e-09	-3.716394e+01	-3.160022e+02
3.100000e-07	-6.887855e-06	-1.235517e-09	-3.707543e+01	-3.156492e+02
3.200000e-07	-6.870971e-06	-1.267680e-09	-3.698454e+01	-3.152986e+02
3.300000e-07	-6.853525e-06	-1.201239e-09	-3.689063e+01	-3.149498e+02
3.400000e-07	-6.835649e-06	-1.187003e-09	-3.679442e+01	-3.146019e+02
3.500000e-07	-6.817388e-06	-1.256774e-09	-3.669612e+01	-3.142538e+02
3.600000e-07	-6.798547e-06	-1.239391e-09	-3.659470e+01	-3.139043e+02
3.700000e-07	-6.779228e-06	-1.171731e-09	-3.649072e+01	-3.135520e+02
3.800000e-07	-6.759581e-06	-1.208570e-09	-3.638496e+01	-3.131952e+02
3.900000e-07	-6.739524e-06	-1.248699e-09	-3.627700e+01	-3.128324e+02
4.000000e-07	-6.719007e-06	-1.195542e-09	-3.616656e+01	-3.124617e+02
4.100000e-07	-6.698074e-06	-1.183247e-09	-3.605389e+01	-3.120814e+02
4.200000e-07	-6.676708e-06	-1.227392e-09	-3.593888e+01	-3.116897e+02
4.300000e-07	-6.654887e-06	-1.205795e-09	-3.582142e+01	-3.112848e+02
4.400000e-07	-6.632593e-06	-1.177551e-09	-3.570142e+01	-3.108651e+02
4.500000e-07	-6.609878e-06	-1.209837e-09	-3.557915e+01	-3.104289e+02
4.600000e-07	-6.586724e-06	-1.204918e-09	-3.545452e+01	-3.099747e+02
4.700000e-07	-6.563166e-06	-1.165091e-09	-3.532772e+01	-3.095013e+02
4.800000e-07	-6.539269e-06	-1.184041e-09	-3.519908e+01	-3.090075e+02
4.900000e-07	-6.514919e-06	-1.203791e-09	-3.506801e+01	-3.084923e+02
5.000000e-07	-6.489905e-06	-1.171955e-09	-3.493337e+01	-3.079550e+02
5.100000e-07	-6.464029e-06	-1.167949e-09	-3.479409e+01	-3.073950e+02
5.200000e-07	-6.437288e-06	-1.187248e-09	-3.465015e+01	-3.068120e+02
5.300000e-07	-6.410078e-06	-1.169269e-09	-3.450368e+01	-3.062059e+02
5.400000e-07	-6.382603e-06	-1.155761e-09	-3.435580e+01	-3.055768e+02
5.500000e-07	-6.354745e-06	-1.168519e-09	-3.420584e+01	-3.049249e+02
5.600000e-07	-6.326514e-06	-1.161200e-09	-3.405388e+01	-3.042507e+02
5.700000e-07	-6.297872e-06	-1.149024e-09	-3.389971e+01	-3.035549e+02
5.800000e-07	-6.268822e-06	-1.157874e-09	-3.374334e+01	-3.028382e+02
5.900000e-07	-6.239465e-06	-1.156001e-09	-3.358532e+01	-3.021014e+02
6.000000e-07	-6.209734e-06	-1.142984e-09	-3.342529e+01	-3.013456e+02
6.100000e-07	-6.179495e-06	-1.143449e-09	-3.326252e+01	-3.005717e+02
6.200000e-07	-6.148631e-06	-1.140791e-09	-3.309638e+01	-2.997808e+02
6.300000e-07	-6.117407e-06	-1.132203e-09	-3.292832e+01	-2.989738e+02
6.400000e-07	-6.085992e-06	-1.133636e-09	-3.275922e+01	-2.981518e+02
6.500000e-07	-6.054194e-06	-1.133490e-09	-3.258806e+01	-2.973157e+02
6.600000e-07	-6.021967e-06	-1.125567e-09	-3.241459e+01	-2.964663e+02
6.700000e-07	-5.989055e-06	-1.123240e-09	-3.223743e+01	-2.956043e+02
6.800000e-07	-5.955456e-06	-1.121171e-09	-3.205658e+01	-2.947303e+02
6.900000e-07	-5.921357e-06	-1.114524e-09	-3.187303e+01	-2.938447e+02
7.000000e-07	-5.886695e-06	-1.111851e-09	-3.168646e+01	-2.929477e+02
7.100000e-07	-5.851621e-06	-1.109266e-09	-3.149766e+01	-2.920395e+02
7.200000e-07	-5.816235e-06	-1.103520e-09	-3.130719e+01	-2.911199e+02
7.300000e-07	-5.780557e-06	-1.101263e-09	-3.111514e+01	-2.901886e+02
7.400000e-07	-5.744613e-06	-1.098566e-09	-3.092167e+01	-2.892453e+02
7.500000e-07	-5.708238e-06	-1.091675e-09	-3.072587e+01	-2.882894e+02
7.600000e-07	-5.671394e-06	-1.087109e-09	-3.052755e+01	-2.873201e+02
7.700000e-07	-5.634228e-06	-1.085322e-09	-3.032750e+01	-2.863366e+02
7.800000e-07	-5.596569e-06	-1.080890e-09	-3.012479e+01	-2.853379e+02
7.900000e-07	-5.558383e-06	-1.074400e-09	-2.991924e+01	-2.843230e+02
8.000000e-07	-5.519809e-06	-1.067796e-09	-2.971161e+01	-2.832909e+02
8.100000e-07	-5.480920e-06	-1.060739e-09	-2.950228e+01	-2.822404e+02
8.200000e-07	-5.441730e-06	-1.055564e-09	-2.929133e+01	-2.811704e+02
8.300000e-07	-5.402251e-06	-1.051935e-09	-2.907883e+01	-2.800800e+02
8.400000e-07	-5.362617e-06	-1.047490e-09	-2.886549e+01	-2.789681e+02
8.500000e-07	-5.322718e-06	-1.042455e-09	-2.865072e+01	-2.778337e+02
8.600000e-07	-5.282380e-06	-1.038223e-09	-2.843360e+01	-2.766761e+02
8.700000e-07	-5.241429e-06	-1.033396e-09	-2.821317e+01	-2.754946e+02
8.800000e-07	-5.199815e-06	-1.027380e-09	-2.798917e+01	-2.742887e+02
8.900000e-07	-5.157627e-06	-1.019729e-09	-2.776209e+01	-2.730579e+02
9.000000e-07	-5.114991e-06	-1.011496e-09	-2.753259e+01	-2.718021e+02
9.100000e-07	-5.071895e-06	-1.005385e-09	-2.730061e+01	-2.705212e+02
9.200000e-07	-5.028453e-06	-1.001169e-09	-2.706678e+01	-2.692153e+02
9.300000e-07	-4.984836e-06	-9.958038e-10	-2.683200e+01	-2.678846e+02
9.400000e-07	-4.940880e-06	-9.884862e-10	-2.659540e+01	-2.665298e+02
9.500000e-07	-4.896585e-06	-9.812611e-10	-2.635697e+01	-2.651512e+02
9.600000e-07	-4.852001e-06	-9.758285e-10	-2.611698e+01	-2.637496e+02
9.700000e-07	-4.807076e-06	-9.709475e-10	-2.587516e+01	-2.623258e+02
9.800000e-07	-4.761806e-06	-9.653352e-10	-2.563149e+01	-2.608806e+02
9.900000e-07	-4.716136e-06	-9.588072e-10	-2.538566e+01	-2.594151e+02
1.000000e-06	-4.670163e-06	-9.520069e-10	-2.513820e+01	-2.579300e+02
1.010000e-06	-4.623959e-06	-9.455816e-10	-2.488950e+01	-2.564263e+02
1.020000e-06	-4.577351e-06	-9.393040e-10	-2.463862e+01	-2.549050e+02
1.030000e-06	-4.530287e-06	-9.321262e-10	-2.438528e+01	-2.533669e+02
1.040000e-06	-4.482997e-06	-9.253347e-10	-2.413074e+01	-2.518127e+02
1.050000e-06	-4.435620e-06	-9.209874e-10	-2.387572e+01	-2.502430e+02
1.060000e-06	-4.388026e-06	-9.166255e-10	-2.361954e+01	-2.486583e+02
1.070000e-06	-4.340103e-06	-9.118152e-10	-2.336158e+01	-2.470590e+02
1.080000e-06	-4.291823e-06	-9.059800e-10	-2.310170e+01	-2.454451e+02
1.090000e-06	-4.243128e-06	-8.983561e-10	-2.283959e+01	-2.438167e+02
1.100000e-06	-4.193895e-06	-8.909780e-10	-2.257458e+01	-2.421734e+02
1.110000e-06	-4.144068e-06	-8.845499e-10	-2.230638e+01	-2.405149e+02
1.120000e-06	-4.093743e-06	-8.780818e-10	-2.203549e+01	-2.388404e+02
1.130000e-06	-4.043054e-06	-8.712844e-10	-2.176265e+01	-2.371492e+02
1.140000e-06	-3.992085e-06	-8.642468e-10	-2.148829e+01	-2.354401e+02
1.150000e-06	-3.940825e-06	-8.579209e-10	-2.121237e+01	-2.337120e+02
1.160000e-06	-3.889326e-06	-8.518792e-10	-2.093517e+01	-2.319636e+02
1.170000e-06	-3.837622e-06	-8.451021e-10	-2.065686e+01	-2.301934e+02
1.180000e-06	-3.785668e-06	-8.381851e-10	-2.037721e+01	-2.283997e+02
1.190000e-06	-3.733393e-06	-8.309748e-10	-2.009583e+01	-2.265810e+02
1.200000e-06	-3.680750e-06	-8.235508e-10	-1.981246e+01	-2.247354e+02
1.210000e-06	-3.627782e-06	-8.164757e-10	-1.952735e+01	-2.228615e+02
1.220000e-06	-3.574525e-06	-8.084320e-10	-1.924068e+01	-2.209573e+02
1.230000e-06	-3.521104e-06	-7.997328e-10	-1.895313e+01	-2.190214e+02
1.240000e-06	-3.467519e-06	-7.915323e-10	-1.866470e+01	-2.170521e+02
1.250000e-06	-3.413561e-06	-7.846612e-10	-1.837426e+01	-2.150481e+02
1.260000e-06	-3.359216e-06	-7.785826e-10	-1.808174e+01	-2.130079e+02
1.270000e-06	-3.304694e-06	-7.705499e-10	-1.778826e+01	-2.109306e+02
1.280000e-06	-3.249936e-06	-7.613339e-10	-1.749351e+01	-2.088152e+02
1.290000e-06	-3.194882e-06	-7.532627e-10	-1.719717e+01	-2.066608e+02
1.300000e-06	-3.139758e-06	-7.457589e-10	-1.690045e+01	-2.044671e+02
1.310000e-06	-3.084467e-06	-7.371339e-10	-1.660284e+01	-2.022336e+02
1.320000e-06	-3.029004e-06	-7.281052e-10	-1.630430e+01	-1.999604e+02
1.330000e-06	-2.973514e-06	-7.197629e-10	-1.600561e+01	-1.976476e+02
1.340000e-06	-2.917943e-06	-7.116357e-10	-1.570648e+01	-1.952956e+02
1.350000e-06	-2.862215e-06	-7.034491e-10	-1.540651e+01	-1.929049e+02
1.360000e-06	-2.806302e-06	-6.949961e-10	-1.510555e+01	-1.904764e+02
1.370000e-06	-2.750233e-06	-6.861500e-10	-1.480374e+01	-1.880110e+02
1.380000e-06	-2.693952e-06	-6.777316e-10	-1.450080e+01	-1.855098e+02
1.390000e-06	-2.637338e-06	-6.691261e-10	-1.419606e+01	-1.829741e+02
1.400000e-06	-2.580462e-06	-6.601073e-10	-1.388992e+01	-1.804052e+02
1.410000e-06	-2.523453e-06	-6.501901e-10	-1.358305e+01	-1.778045e+02
1.420000e-06	-2.466146e-06	-6.397257e-10	-1.327458e+01	-1.751735e+02
1.430000e-06	-2.408530e-06	-6.298825e-10	-1.296445e+01	-1.725137e+02
1.440000e-06	-2.350594e-06	-6.202276e-10	-1.265260e+01	-1.698264e+02
1.450000e-06	-2.292201e-06	-6.102070e-10	-1.233829e+01	-1.671131e+02
1.460000e-06	-2.233561e-06	-5.995311e-10	-1.202264e+01	-1.643751e+02
1.470000e-06	-2.174742e-06	-5.885777e-10	-1.170603e+01	-1.616134e+02
1.480000e-06	-2.115739e-06	-5.780555e-10	-1.138844e+01	-1.588292e+02
1.490000e-06	-2.056578e-06	-5.680570e-10	-1.106999e+01	-1.560234e+02
1.500000e-06	-1.997256e-06	-5.575960e-10	-1.075068e+01	-1.531965e+02
1.510000e-06	-1.937896e-06	-5.456779e-10	-1.043116e+01	-1.503491e+02
1.520000e-06	-1.878480e-06	-5.334707e-10	-1.011134e+01	-1.474815e+02
1.530000e-06	-1.818992e-06	-5.230263e-10	-9.791132e+00	-1.445938e+02
1.540000e-06	-1.759354e-06	-5.131145e-10	-9.470116e+00	-1.416857e+02
1.550000e-06	-1.699649e-06	-5.018489e-10	-9.148741e+00	-1.387570e+02
1.560000e-06	-1.639912e-06	-4.894731e-10	-8.827196e+00	-1.358069e+02
1.570000e-06	-1.580094e-06	-4.771697e-10	-8.505212e+00	-1.328347e+02
1.580000e-06	-1.520258e-06	-4.657055e-10	-8.183131e+00	-1.298395e+02
1.590000e-06	-1.460328e-06	-4.538823e-10	-7.860546e+00	-1.268200e+02
1.600000e-06	-1.400239e-06	-4.418693e-10	-7.537099e+00	-1.237750e+02
1.610000e-06	-1.340006e-06	-4.305049e-10	-7.212882e+00	-1.207029e+02
1.620000e-06	-1.279674e-06	-4.190735e-10	-6.888132e+00	-1.176021e+02
1.630000e-06	-1.219258e-06	-4.077392e-10	-6.562929e+00	-1.144712e+02
1.640000e-06	-1.158879e-06	-3.958173e-10	-6.237928e+00	-1.113082e+02
1.650000e-06	-1.098470e-06	-3.830626e-10	-5.912763e+00	-1.081115e+02
1.660000e-06	-1.037807e-06	-3.709347e-10	-5.586227e+00	-1.048794e+02
1.670000e-06	-9.770239e-07	-3.600792e-10	-5.259050e+00	-1.016100e+02
1.680000e-06	-9.162501e-07	-3.491212e-10	-4.931922e+00	-9.830180e+01
1.690000e-06	-8.554446e-07	-3.364336e-10	-4.604623e+00	-9.495312e+01
1.700000e-06	-7.945877e-07	-3.232542e-10	-4.277047e+00	-9.156250e+01
1.710000e-06	-7.336559e-07	-3.108659e-10	-3.949068e+00	-8.812857e+01
1.720000e-06	-6.727342e-07	-2.985545e-10	-3.621143e+00	-8.465012e+01
1.730000e-06	-6.118025e-07	-2.858574e-10	-3.293164e+00	-8.112609e+01
1.740000e-06	-5.508580e-07	-2.728333e-10	-2.965117e+00	-7.755564e+01
1.750000e-06	-4.899339e-07	-2.592980e-10	-2.637179e+00	-7.393808e+01
1.760000e-06	-4.289083e-07	-2.453153e-10	-2.308695e+00	-7.027296e+01
1.770000e-06	-3.678518e-07	-2.315740e-10	-1.980045e+00	-6.656003e+01
1.780000e-06	-3.068120e-07	-2.178650e-10	-1.651484e+00	-6.279928e+01
1.790000e-06	-2.457362e-07	-2.040091e-10	-1.322730e+00	-5.899092e+01
1.800000e-06	-1.845710e-07	-1.899608e-10	-9.934949e-01	-5.513540e+01
1.810000e-06	-1.233193e-07	-1.757086e-10	-6.637938e-01	-5.123338e+01
1.820000e-06	-6.211816e-08	-1.616891e-10	-3.343650e-01	-4.728578e+01
1.830000e-06	-1.023208e-09	-1.469135e-10	-5.507645e-03	-4.329373e+01
1.840000e-06	6.011799e-08	-1.312621e-10	3.235986e-01	-3.925859e+01
1.850000e-06	1.213580e-07	-1.158367e-10	6.532368e-01	-3.518193e+01
1.860000e-06	1.825919e-07	-1.009219e-10	9.828417e-01	-3.106553e+01
1.870000e-06	2.438040e-07	-8.690774e-11	1.312330e+00	-2.691139e+01
1.880000e-06	3.049638e-07	-7.257565e-11	1.641536e+00	-2.272168e+01
1.890000e-06	3.661357e-07	-5.717415e-11	1.970807e+00	-1.849877e+01
1.900000e-06	4.273777e-07	-4.208936e-11	2.300456e+00	-1.424519e+01
1.910000e-06	4.885523e-07	-2.683848e-11	2.629742e+00	-9.963637e+00
1.920000e-06	5.496379e-07	-1.154789e-11	2.958549e+00	-5.656973e+00
1.930000e-06	6.107032e-07	3.128953e-12	3.287247e+00	-1.328184e+00
1.940000e-06	6.717633e-07	1.841030e-11	3.615917e+00	3.019607e+00
1.950000e-06	7.328376e-07	3.422332e-11	3.944663e+00	7.383166e+00
1.960000e-06	7.938049e-07	4.991247e-11	4.272833e+00	1.175915e+01
1.970000e-06	8.546291e-07	6.551189e-11	4.600233e+00	1.614414e+01
1.980000e-06	9.154249e-07	7.980236e-11	4.927480e+00	2.053462e+01
1.990000e-06	9.761548e-07	9.367067e-11	5.254372e+00	2.492703e+01
2.000000e-06	1.036787e-06	1.091478e-10	5.580741e+00	2.931775e+01
2.010000e-06	1.097354e-06	1.246400e-10	5.906755e+00	3.370315e+01
2.020000e-06	1.157787e-06	1.396142e-10	6.232048e+00	3.807956e+01
2.030000e-06	1.218157e-06	1.553363e-10	6.557003e+00	4.244334e+01
2.040000e-06	1.278510e-06	1.713982e-10	6.881867e+00	4.679085e+01
2.050000e-06	1.338712e-06	1.870505e-10	7.205917e+00	5.111850e+01
2.060000e-06	1.398826e-06	2.024801e-10	7.529494e+00	5.542275e+01
2.070000e-06	1.458930e-06	2.173964e-10	7.853016e+00	5.970014e+01
2.080000e-06	1.518936e-06	2.313366e-10	8.176017e+00	6.394732e+01
2.090000e-06	1.578811e-06	2.444820e-10	8.498304e+00	6.816102e+01
2.100000e-06	1.638608e-06	2.577739e-10	8.820177e+00	7.233814e+01
2.110000e-06	1.698335e-06	2.724218e-10	9.141672e+00	7.647570e+01
2.120000e-06	1.758027e-06	2.876175e-10	9.462977e+00	8.057093e+01
2.130000e-06	1.817676e-06	3.022103e-10	9.784049e+00	8.462120e+01
2.140000e-06	1.877204e-06	3.161333e-10	1.010447e+01	8.862413e+01
2.150000e-06	1.936656e-06	3.293198e-10	1.042449e+01	9.257751e+01
2.160000e-06	1.996023e-06	3.429038e-10	1.074404e+01	9.647940e+01
2.170000e-06	2.055267e-06	3.567623e-10	1.106294e+01	1.003281e+02
2.180000e-06	2.114366e-06	3.696690e-10	1.138105e+01	1.041221e+02
2.190000e-06	2.173314e-06	3.828052e-10	1.169835e+01	1.078601e+02
2.200000e-06	2.232008e-06	3.970333e-10	1.201428e+01	1.115414e+02
2.210000e-06	2.290493e-06	4.111238e-10	1.232909e+01	1.151651e+02
2.220000e-06	2.348771e-06	4.241543e-10	1.264279e+01	1.187308e+02
2.230000e-06	2.406767e-06	4.357462e-10	1.295496e+01	1.222383e+02
2.240000e-06	2.464425e-06	4.474999e-10	1.326532e+01	1.256877e+02
2.250000e-06	2.521661e-06	4.610900e-10	1.357340e+01	1.290793e+02
2.260000e-06	2.578580e-06	4.747643e-10	1.387978e+01	1.324135e+02
2.270000e-06	2.635304e-06	4.863902e-10	1.418511e+01	1.356912e+02
2.280000e-06	2.691838e-06	4.968709e-10	1.448942e+01	1.389132e+02
2.290000e-06	2.748098e-06	5.080979e-10	1.479225e+01	1.420807e+02
2.300000e-06	2.804095e-06	5.203420e-10	1.509367e+01	1.451948e+02
2.310000e-06	2.859900e-06	5.327753e-10	1.539405e+01	1.482570e+02
2.320000e-06	2.915643e-06	5.449038e-10	1.569410e+01	1.512687e+02
2.330000e-06	2.971308e-06	5.582708e-10	1.599373e+01	1.542315e+02
2.340000e-06	3.026788e-06	5.714721e-10	1.629237e+01	1.571470e+02
2.350000e-06	3.082008e-06	5.825395e-10	1.658960e+01	1.600169e+02
2.360000e-06	3.137024e-06	5.918044e-10	1.688573e+01	1.628429e+02
2.370000e-06	3.191866e-06	5.996603e-10	1.718094e+01	1.656266e+02
2.380000e-06	3.246486e-06	6.079116e-10	1.747494e+01	1.683698e+02
2.390000e-06	3.300877e-06	6.186469e-10	1.776771e+01	1.710740e+02
2.400000e-06	3.355004e-06	6.313061e-10	1.805906e+01	1.737409e+02
2.410000e-06	3.409020e-06	6.429756e-10	1.834981e+01	1.763718e+02
2.420000e-06	3.462946e-06	6.535139e-10	1.864009e+01	1.789683e+02
2.430000e-06	3.516622e-06	6.641999e-10	1.892901e+01	1.815316e+02
2.440000e-06	3.570077e-06	6.743862e-10	1.921674e+01	1.840629e+02
2.450000e-06	3.623187e-06	6.837887e-10	1.950262e+01	1.865635e+02
2.460000e-06	3.675939e-06	6.928041e-10	1.978657e+01	1.890342e+02
2.470000e-06	3.728425e-06	7.011170e-10	2.006908e+01	1.914761e+02
2.480000e-06	3.780584e-06	7.093653e-10	2.034984e+01	1.938899e+02
2.490000e-06	3.832412e-06	7.185189e-10	2.062882e+01	1.962764e+02
2.500000e-06	3.883902e-06	7.279768e-10	2.090597e+01	1.986362e+02
2.510000e-06	3.935117e-06	7.365630e-10	2.118165e+01	2.009698e+02
2.520000e-06	3.985990e-06	7.450572e-10	2.145548e+01	2.032777e+02
2.530000e-06	4.036349e-06	7.538698e-10	2.172656e+01	2.055604e+02
2.540000e-06	4.086380e-06	7.616697e-10	2.199586e+01	2.078182e+02
2.550000e-06	4.136072e-06	7.684662e-10	2.226334e+01	2.100515e+02
2.560000e-06	4.185266e-06	7.748001e-10	2.252813e+01	2.122604e+02
2.570000e-06	4.234097e-06	7.812793e-10	2.279098e+01	2.144452e+02
2.580000e-06	4.282583e-06	7.891934e-10	2.305196e+01	2.166063e+02
2.590000e-06	4.330732e-06	7.982830e-10	2.331114e+01	2.187437e+02
2.600000e-06	4.378529e-06	8.069007e-10	2.356841e+01	2.208577e+02
2.610000e-06	4.425953e-06	8.143593e-10	2.382368e+01	2.229485e+02
2.620000e-06	4.473132e-06	8.205130e-10	2.407764e+01	2.250162e+02
2.630000e-06	4.520108e-06	8.266399e-10	2.433050e+01	2.270611e+02
2.640000e-06	4.566708e-06	8.340853e-10	2.458133e+01	2.290832e+02
2.650000e-06	4.612981e-06	8.419369e-10	2.483041e+01	2.310829e+02
2.660000e-06	4.659031e-06	8.490060e-10	2.507828e+01	2.330602e+02
2.670000e-06	4.704757e-06	8.549381e-10	2.532441e+01	2.350152e+02
2.680000e-06	4.750137e-06	8.603681e-10	2.556868e+01	2.369480e+02
2.690000e-06	4.795267e-06	8.664904e-10	2.581160e+01	2.388588e+02
2.700000e-06	4.840092e-06	8.727930e-10	2.605288e+01	2.407474e+02
2.710000e-06	4.884515e-06	8.791868e-10	2.629200e+01	2.426139e+02
2.720000e-06	4.928609e-06	8.873124e-10	2.652934e+01	2.444582e+02
2.730000e-06	4.972451e-06	8.966408e-10	2.676533e+01	2.462802e+02
2.740000e-06	5.016022e-06	9.048841e-10	2.699986e+01	2.480795e+02
2.750000e-06	5.059351e-06	9.111356e-10	2.723309e+01	2.498560e+02
2.760000e-06	5.102395e-06	9.164915e-10	2.746479e+01	2.516092e+02
2.770000e-06	5.145047e-06	9.217890e-10	2.769437e+01	2.533387e+02
2.780000e-06	5.187184e-06	9.285755e-10	2.792118e+01	2.550440e+02
2.790000e-06	5.228737e-06	9.367243e-10	2.814485e+01	2.567245e+02
2.800000e-06	5.269662e-06	9.440573e-10	2.836514e+01	2.583796e+02
2.810000e-06	5.310034e-06	9.506549e-10	2.858245e+01	2.600085e+02
2.820000e-06	5.350129e-06	9.572472e-10	2.879827e+01	2.616106e+02
2.830000e-06	5.389870e-06	9.642058e-10	2.901219e+01	2.631850e+02
2.840000e-06	5.429223e-06	9.708261e-10	2.922401e+01	2.647309e+02
2.850000e-06	5.468275e-06	9.767736e-10	2.943422e+01	2.662477e+02
2.860000e-06	5.506911e-06	9.822338e-10	2.964218e+01	2.677344e+02
2.870000e-06	5.545217e-06	9.874424e-10	2.984837e+01	2.691904e+02
2.880000e-06	5.583291e-06	9.933058e-10	3.005332e+01	2.706151e+02
2.890000e-06	5.620950e-06	9.993750e-10	3.025602e+01	2.720077e+02
2.900000e-06	5.658090e-06	1.005209e-09	3.045594e+01	2.733679e+02
