# Temperatura_=_12.6
# Concentracion g/m^3_=_7400.0
# C_Vs_to_Am_M_A/Vsm_=_254322799225.57578
# pendiente_HvsI_1/m_=_3716.3
# ordenada_HvsI_A/m_=_1297.0
# frecuencia_Hz_=_136107.70668697314

Tiempo_(s)	Campo_(V.s)	Magnetizacion_(V.s)	Campo_(kA/m)	Magnetizacion_(A/m)
0.000000e+00	-7.124888e-06	-1.497014e-09	-3.843303e+01	-3.758321e+02
1.000000e-08	-7.124972e-06	-1.497391e-09	-3.843349e+01	-3.758709e+02
2.000000e-08	-7.124796e-06	-1.498040e-09	-3.843254e+01	-3.758908e+02
3.000000e-08	-7.124200e-06	-1.497565e-09	-3.842932e+01	-3.758924e+02
4.000000e-08	-7.122829e-06	-1.495799e-09	-3.842193e+01	-3.758761e+02
5.000000e-08	-7.120568e-06	-1.494121e-09	-3.840973e+01	-3.758423e+02
6.000000e-08	-7.117628e-06	-1.493934e-09	-3.839387e+01	-3.757919e+02
7.000000e-08	-7.114218e-06	-1.495543e-09	-3.837548e+01	-3.757254e+02
8.000000e-08	-7.110504e-06	-1.497132e-09	-3.835545e+01	-3.756436e+02
9.000000e-08	-7.106272e-06	-1.492683e-09	-3.833262e+01	-3.755474e+02
1.000000e-07	-7.101173e-06	-1.476515e-09	-3.830511e+01	-3.754376e+02
1.100000e-07	-7.095356e-06	-1.464477e-09	-3.827373e+01	-3.753151e+02
1.200000e-07	-7.089303e-06	-1.486564e-09	-3.824108e+01	-3.751808e+02
1.300000e-07	-7.083063e-06	-1.523587e-09	-3.820742e+01	-3.750356e+02
1.400000e-07	-7.076339e-06	-1.501282e-09	-3.817115e+01	-3.748804e+02
1.500000e-07	-7.069022e-06	-1.445589e-09	-3.813168e+01	-3.747161e+02
1.600000e-07	-7.061314e-06	-1.464463e-09	-3.809010e+01	-3.745436e+02
1.700000e-07	-7.053292e-06	-1.522224e-09	-3.804683e+01	-3.743635e+02
1.800000e-07	-7.044735e-06	-1.491547e-09	-3.800067e+01	-3.741766e+02
1.900000e-07	-7.035404e-06	-1.416036e-09	-3.795034e+01	-3.739834e+02
2.000000e-07	-7.025476e-06	-1.452258e-09	-3.789678e+01	-3.737846e+02
2.100000e-07	-7.014968e-06	-1.537579e-09	-3.784010e+01	-3.735806e+02
2.200000e-07	-7.003723e-06	-1.499791e-09	-3.777944e+01	-3.733716e+02
2.300000e-07	-6.991894e-06	-1.412294e-09	-3.771564e+01	-3.731578e+02
2.400000e-07	-6.979665e-06	-1.445181e-09	-3.764967e+01	-3.729393e+02
2.500000e-07	-6.966743e-06	-1.511189e-09	-3.757997e+01	-3.727160e+02
2.600000e-07	-6.953025e-06	-1.469720e-09	-3.750597e+01	-3.724878e+02
2.700000e-07	-6.939039e-06	-1.423654e-09	-3.743053e+01	-3.722543e+02
2.800000e-07	-6.924529e-06	-1.469212e-09	-3.735226e+01	-3.720151e+02
2.900000e-07	-6.909201e-06	-1.487007e-09	-3.726958e+01	-3.717696e+02
3.000000e-07	-6.893235e-06	-1.434875e-09	-3.718345e+01	-3.715173e+02
3.100000e-07	-6.876776e-06	-1.438732e-09	-3.709467e+01	-3.712575e+02
3.200000e-07	-6.859807e-06	-1.477139e-09	-3.700314e+01	-3.709892e+02
3.300000e-07	-6.842376e-06	-1.445519e-09	-3.690911e+01	-3.707117e+02
3.400000e-07	-6.824496e-06	-1.421063e-09	-3.681266e+01	-3.704240e+02
3.500000e-07	-6.806112e-06	-1.473867e-09	-3.671349e+01	-3.701253e+02
3.600000e-07	-6.787247e-06	-1.473723e-09	-3.661173e+01	-3.698146e+02
3.700000e-07	-6.767922e-06	-1.404230e-09	-3.650749e+01	-3.694910e+02
3.800000e-07	-6.748324e-06	-1.418710e-09	-3.640177e+01	-3.691535e+02
3.900000e-07	-6.728411e-06	-1.475634e-09	-3.629436e+01	-3.688013e+02
4.000000e-07	-6.707954e-06	-1.437178e-09	-3.618401e+01	-3.684337e+02
4.100000e-07	-6.687028e-06	-1.399980e-09	-3.607113e+01	-3.680498e+02
4.200000e-07	-6.665638e-06	-1.447784e-09	-3.595575e+01	-3.676490e+02
4.300000e-07	-6.643760e-06	-1.453179e-09	-3.583773e+01	-3.672308e+02
4.400000e-07	-6.621487e-06	-1.402130e-09	-3.571759e+01	-3.667948e+02
4.500000e-07	-6.598758e-06	-1.414927e-09	-3.559499e+01	-3.663405e+02
4.600000e-07	-6.575580e-06	-1.440951e-09	-3.546996e+01	-3.658678e+02
4.700000e-07	-6.552026e-06	-1.405023e-09	-3.534291e+01	-3.653766e+02
4.800000e-07	-6.528077e-06	-1.400525e-09	-3.521372e+01	-3.648669e+02
4.900000e-07	-6.503728e-06	-1.434209e-09	-3.508238e+01	-3.643389e+02
5.000000e-07	-6.478798e-06	-1.409189e-09	-3.494790e+01	-3.637927e+02
5.100000e-07	-6.453113e-06	-1.380782e-09	-3.480935e+01	-3.632287e+02
5.200000e-07	-6.426782e-06	-1.410523e-09	-3.466731e+01	-3.626473e+02
5.300000e-07	-6.399892e-06	-1.411883e-09	-3.452226e+01	-3.620491e+02
5.400000e-07	-6.372503e-06	-1.379613e-09	-3.437452e+01	-3.614347e+02
5.500000e-07	-6.344694e-06	-1.390712e-09	-3.422452e+01	-3.608046e+02
5.600000e-07	-6.316519e-06	-1.404076e-09	-3.407253e+01	-3.601595e+02
5.700000e-07	-6.288008e-06	-1.378536e-09	-3.391874e+01	-3.595001e+02
5.800000e-07	-6.259064e-06	-1.374447e-09	-3.376261e+01	-3.588270e+02
5.900000e-07	-6.229607e-06	-1.387291e-09	-3.360371e+01	-3.581410e+02
6.000000e-07	-6.199818e-06	-1.372158e-09	-3.344302e+01	-3.574426e+02
6.100000e-07	-6.169665e-06	-1.363926e-09	-3.328037e+01	-3.567324e+02
6.200000e-07	-6.139068e-06	-1.375381e-09	-3.311533e+01	-3.560109e+02
6.300000e-07	-6.108053e-06	-1.367334e-09	-3.294803e+01	-3.552785e+02
6.400000e-07	-6.076730e-06	-1.354835e-09	-3.277907e+01	-3.545356e+02
6.500000e-07	-6.045161e-06	-1.359884e-09	-3.260877e+01	-3.537824e+02
6.600000e-07	-6.013186e-06	-1.357879e-09	-3.243629e+01	-3.530189e+02
6.700000e-07	-5.980658e-06	-1.347647e-09	-3.226084e+01	-3.522453e+02
6.800000e-07	-5.947502e-06	-1.348023e-09	-3.208198e+01	-3.514614e+02
6.900000e-07	-5.913620e-06	-1.346556e-09	-3.189922e+01	-3.506669e+02
7.000000e-07	-5.879072e-06	-1.337061e-09	-3.171286e+01	-3.498615e+02
7.100000e-07	-5.844100e-06	-1.332187e-09	-3.152421e+01	-3.490448e+02
7.200000e-07	-5.808813e-06	-1.328851e-09	-3.133387e+01	-3.482161e+02
7.300000e-07	-5.773273e-06	-1.323749e-09	-3.114216e+01	-3.473749e+02
7.400000e-07	-5.737397e-06	-1.320810e-09	-3.094864e+01	-3.465202e+02
7.500000e-07	-5.701096e-06	-1.317610e-09	-3.075282e+01	-3.456514e+02
7.600000e-07	-5.664317e-06	-1.312317e-09	-3.055443e+01	-3.447675e+02
7.700000e-07	-5.627160e-06	-1.308895e-09	-3.035400e+01	-3.438676e+02
7.800000e-07	-5.589703e-06	-1.304745e-09	-3.015195e+01	-3.429508e+02
7.900000e-07	-5.551789e-06	-1.298236e-09	-2.994743e+01	-3.420160e+02
8.000000e-07	-5.513414e-06	-1.292048e-09	-2.974043e+01	-3.410623e+02
8.100000e-07	-5.474637e-06	-1.286599e-09	-2.953126e+01	-3.400887e+02
8.200000e-07	-5.435522e-06	-1.281550e-09	-2.932026e+01	-3.390944e+02
8.300000e-07	-5.396117e-06	-1.277297e-09	-2.910770e+01	-3.380784e+02
8.400000e-07	-5.356409e-06	-1.272881e-09	-2.889351e+01	-3.370401e+02
8.500000e-07	-5.316419e-06	-1.267852e-09	-2.867780e+01	-3.359787e+02
8.600000e-07	-5.276068e-06	-1.262885e-09	-2.846014e+01	-3.348935e+02
8.700000e-07	-5.235230e-06	-1.257930e-09	-2.823985e+01	-3.337842e+02
8.800000e-07	-5.193918e-06	-1.252596e-09	-2.801700e+01	-3.326502e+02
8.900000e-07	-5.152042e-06	-1.246074e-09	-2.779112e+01	-3.314912e+02
9.000000e-07	-5.109570e-06	-1.238852e-09	-2.756202e+01	-3.303072e+02
9.100000e-07	-5.066687e-06	-1.232568e-09	-2.733070e+01	-3.290979e+02
9.200000e-07	-5.023445e-06	-1.227214e-09	-2.709744e+01	-3.278635e+02
9.300000e-07	-4.979866e-06	-1.221852e-09	-2.686237e+01	-3.266041e+02
9.400000e-07	-4.935954e-06	-1.216011e-09	-2.662549e+01	-3.253199e+02
9.500000e-07	-4.891625e-06	-1.209780e-09	-2.638638e+01	-3.240112e+02
9.600000e-07	-4.846965e-06	-1.203663e-09	-2.614548e+01	-3.226785e+02
9.700000e-07	-4.802058e-06	-1.197838e-09	-2.590323e+01	-3.213222e+02
9.800000e-07	-4.756846e-06	-1.192313e-09	-2.565935e+01	-3.199428e+02
9.900000e-07	-4.711267e-06	-1.186146e-09	-2.541349e+01	-3.185409e+02
1.000000e-06	-4.665371e-06	-1.180243e-09	-2.516592e+01	-3.171171e+02
1.010000e-06	-4.619179e-06	-1.175061e-09	-2.491675e+01	-3.156718e+02
1.020000e-06	-4.572719e-06	-1.169441e-09	-2.466614e+01	-3.142057e+02
1.030000e-06	-4.525963e-06	-1.163076e-09	-2.441393e+01	-3.127193e+02
1.040000e-06	-4.478817e-06	-1.157111e-09	-2.415961e+01	-3.112130e+02
1.050000e-06	-4.431347e-06	-1.152680e-09	-2.390355e+01	-3.096873e+02
1.060000e-06	-4.383698e-06	-1.148365e-09	-2.364652e+01	-3.081425e+02
1.070000e-06	-4.335973e-06	-1.143590e-09	-2.338908e+01	-3.065789e+02
1.080000e-06	-4.287870e-06	-1.138428e-09	-2.312961e+01	-3.049966e+02
1.090000e-06	-4.239342e-06	-1.131354e-09	-2.286784e+01	-3.033958e+02
1.100000e-06	-4.190310e-06	-1.123505e-09	-2.260335e+01	-3.017763e+02
1.110000e-06	-4.140662e-06	-1.117095e-09	-2.233554e+01	-3.001381e+02
1.120000e-06	-4.090614e-06	-1.110983e-09	-2.206557e+01	-2.984808e+02
1.130000e-06	-4.040120e-06	-1.104100e-09	-2.179319e+01	-2.968041e+02
1.140000e-06	-3.989438e-06	-1.097354e-09	-2.151981e+01	-2.951075e+02
1.150000e-06	-3.938472e-06	-1.090877e-09	-2.124489e+01	-2.933905e+02
1.160000e-06	-3.887132e-06	-1.084714e-09	-2.096794e+01	-2.916524e+02
1.170000e-06	-3.835574e-06	-1.078175e-09	-2.068983e+01	-2.898923e+02
1.180000e-06	-3.783662e-06	-1.070828e-09	-2.040981e+01	-2.881096e+02
1.190000e-06	-3.731401e-06	-1.063359e-09	-2.012790e+01	-2.863033e+02
1.200000e-06	-3.678857e-06	-1.056248e-09	-1.984447e+01	-2.844725e+02
1.210000e-06	-3.626033e-06	-1.049531e-09	-1.955953e+01	-2.826162e+02
1.220000e-06	-3.572842e-06	-1.041916e-09	-1.927261e+01	-2.807335e+02
1.230000e-06	-3.519414e-06	-1.033161e-09	-1.898441e+01	-2.788235e+02
1.240000e-06	-3.465864e-06	-1.023841e-09	-1.869555e+01	-2.768851e+02
1.250000e-06	-3.412043e-06	-1.016150e-09	-1.840522e+01	-2.749174e+02
1.260000e-06	-3.357984e-06	-1.009890e-09	-1.811362e+01	-2.729197e+02
1.270000e-06	-3.303627e-06	-1.001591e-09	-1.782041e+01	-2.708911e+02
1.280000e-06	-3.248989e-06	-9.925540e-10	-1.752568e+01	-2.688308e+02
1.290000e-06	-3.194264e-06	-9.844775e-10	-1.723048e+01	-2.667383e+02
1.300000e-06	-3.139469e-06	-9.765153e-10	-1.693490e+01	-2.646129e+02
1.310000e-06	-3.084450e-06	-9.676489e-10	-1.663813e+01	-2.624542e+02
1.320000e-06	-3.029098e-06	-9.581159e-10	-1.633954e+01	-2.602619e+02
1.330000e-06	-2.973549e-06	-9.484716e-10	-1.603990e+01	-2.580357e+02
1.340000e-06	-2.917934e-06	-9.390233e-10	-1.573990e+01	-2.557753e+02
1.350000e-06	-2.862189e-06	-9.311057e-10	-1.543921e+01	-2.534808e+02
1.360000e-06	-2.806300e-06	-9.230031e-10	-1.513773e+01	-2.511521e+02
1.370000e-06	-2.750255e-06	-9.139229e-10	-1.483541e+01	-2.487893e+02
1.380000e-06	-2.693940e-06	-9.053200e-10	-1.453164e+01	-2.463926e+02
1.390000e-06	-2.637522e-06	-8.963090e-10	-1.422731e+01	-2.439622e+02
1.400000e-06	-2.580945e-06	-8.871133e-10	-1.392212e+01	-2.414982e+02
1.410000e-06	-2.523999e-06	-8.777152e-10	-1.361494e+01	-2.390009e+02
1.420000e-06	-2.466791e-06	-8.677368e-10	-1.330635e+01	-2.364706e+02
1.430000e-06	-2.409282e-06	-8.581970e-10	-1.299614e+01	-2.339073e+02
1.440000e-06	-2.351337e-06	-8.487656e-10	-1.268357e+01	-2.313113e+02
1.450000e-06	-2.293067e-06	-8.387240e-10	-1.236925e+01	-2.286826e+02
1.460000e-06	-2.234571e-06	-8.277801e-10	-1.205371e+01	-2.260212e+02
1.470000e-06	-2.175817e-06	-8.162760e-10	-1.173678e+01	-2.233268e+02
1.480000e-06	-2.116890e-06	-8.048332e-10	-1.141892e+01	-2.205992e+02
1.490000e-06	-2.057806e-06	-7.937258e-10	-1.110021e+01	-2.178379e+02
1.500000e-06	-1.998586e-06	-7.832712e-10	-1.078076e+01	-2.150422e+02
1.510000e-06	-1.939376e-06	-7.723266e-10	-1.046137e+01	-2.122113e+02
1.520000e-06	-1.880031e-06	-7.605020e-10	-1.014125e+01	-2.093441e+02
1.530000e-06	-1.820555e-06	-7.499317e-10	-9.820427e+00	-2.064393e+02
1.540000e-06	-1.761003e-06	-7.400567e-10	-9.499192e+00	-2.034953e+02
1.550000e-06	-1.701369e-06	-7.284777e-10	-9.177515e+00	-2.005105e+02
1.560000e-06	-1.641716e-06	-7.158899e-10	-8.855733e+00	-1.974827e+02
1.570000e-06	-1.581941e-06	-7.035267e-10	-8.533295e+00	-1.944097e+02
1.580000e-06	-1.522113e-06	-6.922821e-10	-8.210572e+00	-1.912891e+02
1.590000e-06	-1.462228e-06	-6.811474e-10	-7.887542e+00	-1.881183e+02
1.600000e-06	-1.402162e-06	-6.690966e-10	-7.563537e+00	-1.848942e+02
1.610000e-06	-1.341988e-06	-6.561725e-10	-7.238942e+00	-1.816140e+02
1.620000e-06	-1.281799e-06	-6.424551e-10	-6.914274e+00	-1.782743e+02
1.630000e-06	-1.221557e-06	-6.294168e-10	-6.589316e+00	-1.748718e+02
1.640000e-06	-1.161173e-06	-6.165264e-10	-6.263596e+00	-1.714032e+02
1.650000e-06	-1.100695e-06	-6.033788e-10	-5.937363e+00	-1.678650e+02
1.660000e-06	-1.040112e-06	-5.903654e-10	-5.610567e+00	-1.642536e+02
1.670000e-06	-9.794338e-07	-5.776021e-10	-5.283257e+00	-1.605657e+02
1.680000e-06	-9.187615e-07	-5.646705e-10	-4.955978e+00	-1.567978e+02
1.690000e-06	-8.580924e-07	-5.504885e-10	-4.628717e+00	-1.529466e+02
1.700000e-06	-7.973904e-07	-5.368153e-10	-4.301279e+00	-1.490090e+02
1.710000e-06	-7.366183e-07	-5.236477e-10	-3.973462e+00	-1.449822e+02
1.720000e-06	-6.757616e-07	-5.093663e-10	-3.645190e+00	-1.408633e+02
1.730000e-06	-6.148489e-07	-4.951698e-10	-3.316615e+00	-1.366501e+02
1.740000e-06	-5.539453e-07	-4.805003e-10	-2.988089e+00	-1.323405e+02
1.750000e-06	-4.930209e-07	-4.643563e-10	-2.659451e+00	-1.279329e+02
1.760000e-06	-4.319863e-07	-4.475144e-10	-2.330218e+00	-1.234259e+02
1.770000e-06	-3.708888e-07	-4.305738e-10	-2.000646e+00	-1.188189e+02
1.780000e-06	-3.097422e-07	-4.142227e-10	-1.670810e+00	-1.141114e+02
1.790000e-06	-2.485865e-07	-3.978804e-10	-1.340924e+00	-1.093037e+02
1.800000e-06	-1.874572e-07	-3.795316e-10	-1.011180e+00	-1.043966e+02
1.810000e-06	-1.262440e-07	-3.593760e-10	-6.809847e-01	-9.939125e+01
1.820000e-06	-6.503998e-08	-3.397728e-10	-3.508383e-01	-9.428958e+01
1.830000e-06	-3.876071e-09	-3.206962e-10	-2.090828e-02	-8.909396e+01
1.840000e-06	5.729708e-08	-3.008768e-10	3.090716e-01	-8.380738e+01
1.850000e-06	1.183656e-07	-2.804534e-10	6.384872e-01	-7.843336e+01
1.860000e-06	1.795272e-07	-2.601764e-10	9.684048e-01	-7.297599e+01
1.870000e-06	2.407485e-07	-2.406163e-10	1.298644e+00	-6.743987e+01
1.880000e-06	3.018427e-07	-2.207085e-10	1.628198e+00	-6.183009e+01
1.890000e-06	3.629358e-07	-1.993138e-10	1.957746e+00	-5.615222e+01
1.900000e-06	4.240381e-07	-1.770637e-10	2.287344e+00	-5.041227e+01
1.910000e-06	4.851262e-07	-1.535108e-10	2.616865e+00	-4.461663e+01
1.920000e-06	5.461228e-07	-1.306975e-10	2.945893e+00	-3.877203e+01
1.930000e-06	6.070589e-07	-1.102883e-10	3.274594e+00	-3.288549e+01
1.940000e-06	6.679367e-07	-8.927012e-11	3.602981e+00	-2.696429e+01
1.950000e-06	7.288020e-07	-6.628575e-11	3.931300e+00	-2.101588e+01
1.960000e-06	7.896780e-07	-4.239148e-11	4.259677e+00	-1.504781e+01
1.970000e-06	8.503629e-07	-1.929776e-11	4.587023e+00	-9.067740e+00
1.980000e-06	9.109255e-07	1.914110e-12	4.913709e+00	-3.083288e+00
1.990000e-06	9.715109e-07	2.301334e-11	5.240519e+00	2.897965e+00
2.000000e-06	1.031947e-06	4.629101e-11	5.566522e+00	8.868561e+00
2.010000e-06	1.092254e-06	6.973638e-11	5.891829e+00	1.482122e+01
2.020000e-06	1.152598e-06	9.111342e-11	6.217338e+00	2.074890e+01
2.030000e-06	1.212811e-06	1.117444e-10	6.542139e+00	2.664483e+01
2.040000e-06	1.272858e-06	1.328060e-10	6.866046e+00	3.250260e+01
2.050000e-06	1.332927e-06	1.545482e-10	7.190069e+00	3.831614e+01
2.060000e-06	1.392925e-06	1.762000e-10	7.513706e+00	4.407984e+01
2.070000e-06	1.452836e-06	1.966634e-10	7.836883e+00	4.978851e+01
2.080000e-06	1.512692e-06	2.162689e-10	8.159756e+00	5.543747e+01
2.090000e-06	1.572474e-06	2.358047e-10	8.482231e+00	6.102251e+01
2.100000e-06	1.632150e-06	2.562055e-10	8.804137e+00	6.653996e+01
2.110000e-06	1.691705e-06	2.776640e-10	9.125389e+00	7.198669e+01
2.120000e-06	1.751273e-06	2.983800e-10	9.446705e+00	7.736006e+01
2.130000e-06	1.810773e-06	3.179452e-10	9.767661e+00	8.265800e+01
2.140000e-06	1.870102e-06	3.371433e-10	1.008770e+01	8.787894e+01
2.150000e-06	1.929378e-06	3.549758e-10	1.040744e+01	9.302180e+01
2.160000e-06	1.988693e-06	3.726961e-10	1.072740e+01	9.808601e+01
2.170000e-06	2.047962e-06	3.905852e-10	1.104711e+01	1.030714e+02
2.180000e-06	2.106982e-06	4.070360e-10	1.136547e+01	1.079784e+02
2.190000e-06	2.165792e-06	4.243175e-10	1.168271e+01	1.128075e+02
2.200000e-06	2.224312e-06	4.426212e-10	1.199837e+01	1.175598e+02
2.210000e-06	2.282625e-06	4.601538e-10	1.231293e+01	1.222367e+02
2.220000e-06	2.340883e-06	4.769836e-10	1.262718e+01	1.268398e+02
2.230000e-06	2.398825e-06	4.929490e-10	1.293973e+01	1.313709e+02
2.240000e-06	2.456488e-06	5.092984e-10	1.325077e+01	1.358320e+02
2.250000e-06	2.513785e-06	5.263263e-10	1.355985e+01	1.402253e+02
2.260000e-06	2.570734e-06	5.419831e-10	1.386704e+01	1.445529e+02
2.270000e-06	2.627377e-06	5.562862e-10	1.417258e+01	1.488171e+02
2.280000e-06	2.683679e-06	5.702633e-10	1.447629e+01	1.530203e+02
2.290000e-06	2.739805e-06	5.838356e-10	1.477904e+01	1.571646e+02
2.300000e-06	2.795837e-06	5.978837e-10	1.508129e+01	1.612521e+02
2.310000e-06	2.851674e-06	6.130310e-10	1.538249e+01	1.652851e+02
2.320000e-06	2.907274e-06	6.283271e-10	1.568240e+01	1.692652e+02
2.330000e-06	2.962741e-06	6.446641e-10	1.598160e+01	1.731944e+02
2.340000e-06	3.018095e-06	6.606234e-10	1.628019e+01	1.770742e+02
2.350000e-06	3.073300e-06	6.739921e-10	1.657798e+01	1.809060e+02
2.360000e-06	3.128244e-06	6.850143e-10	1.687436e+01	1.846910e+02
2.370000e-06	3.182860e-06	6.947048e-10	1.716897e+01	1.884302e+02
2.380000e-06	3.237390e-06	7.049742e-10	1.746311e+01	1.921243e+02
2.390000e-06	3.291783e-06	7.180670e-10	1.775652e+01	1.957740e+02
2.400000e-06	3.345891e-06	7.341880e-10	1.804839e+01	1.993796e+02
2.410000e-06	3.399823e-06	7.492525e-10	1.833931e+01	2.029414e+02
2.420000e-06	3.453558e-06	7.622047e-10	1.862917e+01	2.064593e+02
2.430000e-06	3.507038e-06	7.748684e-10	1.891764e+01	2.099331e+02
2.440000e-06	3.560226e-06	7.876636e-10	1.920455e+01	2.133628e+02
2.450000e-06	3.613089e-06	8.005013e-10	1.948970e+01	2.167477e+02
2.460000e-06	3.665667e-06	8.122895e-10	1.977332e+01	2.200875e+02
2.470000e-06	3.717999e-06	8.231793e-10	2.005561e+01	2.233817e+02
2.480000e-06	3.770107e-06	8.343227e-10	2.033669e+01	2.266295e+02
2.490000e-06	3.821881e-06	8.464138e-10	2.061597e+01	2.298304e+02
2.500000e-06	3.873303e-06	8.591575e-10	2.089335e+01	2.329838e+02
2.510000e-06	3.924470e-06	8.706003e-10	2.116936e+01	2.360890e+02
2.520000e-06	3.975271e-06	8.809823e-10	2.144338e+01	2.391454e+02
2.530000e-06	4.025685e-06	8.921759e-10	2.171533e+01	2.421526e+02
2.540000e-06	4.075743e-06	9.037205e-10	2.198535e+01	2.451101e+02
2.550000e-06	4.125401e-06	9.139691e-10	2.225322e+01	2.480176e+02
2.560000e-06	4.174563e-06	9.228058e-10	2.251841e+01	2.508747e+02
2.570000e-06	4.223197e-06	9.310566e-10	2.278075e+01	2.536813e+02
2.580000e-06	4.271424e-06	9.412710e-10	2.304089e+01	2.564374e+02
2.590000e-06	4.319408e-06	9.534168e-10	2.329973e+01	2.591430e+02
2.600000e-06	4.367187e-06	9.647226e-10	2.355746e+01	2.617983e+02
2.610000e-06	4.414660e-06	9.735576e-10	2.381354e+01	2.644035e+02
2.620000e-06	4.461849e-06	9.813760e-10	2.406808e+01	2.669591e+02
2.630000e-06	4.508718e-06	9.908381e-10	2.432090e+01	2.694655e+02
2.640000e-06	4.555171e-06	1.000195e-09	2.457148e+01	2.719232e+02
2.650000e-06	4.601291e-06	1.007913e-09	2.482026e+01	2.743330e+02
2.660000e-06	4.647135e-06	1.015761e-09	2.506755e+01	2.766955e+02
2.670000e-06	4.692702e-06	1.023359e-09	2.531335e+01	2.790116e+02
2.680000e-06	4.737972e-06	1.030760e-09	2.555754e+01	2.812819e+02
2.690000e-06	4.782908e-06	1.039574e-09	2.579994e+01	2.835074e+02
2.700000e-06	4.827469e-06	1.047688e-09	2.604031e+01	2.856889e+02
2.710000e-06	4.871766e-06	1.054567e-09	2.627925e+01	2.878272e+02
2.720000e-06	4.915826e-06	1.063373e-09	2.651693e+01	2.899234e+02
2.730000e-06	4.959602e-06	1.073779e-09	2.675306e+01	2.919781e+02
2.740000e-06	5.003233e-06	1.083712e-09	2.698842e+01	2.939922e+02
2.750000e-06	5.046703e-06	1.091319e-09	2.722290e+01	2.959665e+02
2.760000e-06	5.089901e-06	1.097174e-09	2.745591e+01	2.979019e+02
2.770000e-06	5.132723e-06	1.103339e-09	2.768691e+01	2.997990e+02
2.780000e-06	5.174814e-06	1.110686e-09	2.791396e+01	3.016584e+02
2.790000e-06	5.216063e-06	1.119139e-09	2.813646e+01	3.034809e+02
2.800000e-06	5.256631e-06	1.126924e-09	2.835529e+01	3.052671e+02
2.810000e-06	5.296775e-06	1.133899e-09	2.857184e+01	3.070175e+02
2.820000e-06	5.336681e-06	1.140789e-09	2.878709e+01	3.087327e+02
2.830000e-06	5.376356e-06	1.147756e-09	2.900111e+01	3.104132e+02
2.840000e-06	5.415788e-06	1.154065e-09	2.921382e+01	3.120595e+02
2.850000e-06	5.454868e-06	1.159234e-09	2.942462e+01	3.136720e+02
2.860000e-06	5.493566e-06	1.163921e-09	2.963336e+01	3.152512e+02
2.870000e-06	5.531878e-06	1.169140e-09	2.984003e+01	3.167977e+02
2.880000e-06	5.569861e-06	1.176185e-09	3.004491e+01	3.183118e+02
2.890000e-06	5.607450e-06	1.183859e-09	3.024768e+01	3.197941e+02
2.900000e-06	5.644609e-06	1.189595e-09	3.044812e+01	3.212451e+02
