# Temperatura_=_10.7
# Concentracion g/m^3_=_7400.0
# C_Vs_to_Am_M_A/Vsm_=_254322799225.57578
# pendiente_HvsI_1/m_=_3716.3
# ordenada_HvsI_A/m_=_1297.0
# frecuencia_Hz_=_136107.6903012452

Tiempo_(s)	Campo_(V.s)	Magnetizacion_(V.s)	Campo_(kA/m)	Magnetizacion_(A/m)
0.000000e+00	-7.130717e-06	-1.544748e-09	-3.843330e+01	-3.897312e+02
1.000000e-08	-7.131036e-06	-1.544312e-09	-3.843502e+01	-3.897036e+02
2.000000e-08	-7.131023e-06	-1.543054e-09	-3.843495e+01	-3.896591e+02
3.000000e-08	-7.130591e-06	-1.541093e-09	-3.843262e+01	-3.895989e+02
4.000000e-08	-7.129533e-06	-1.539905e-09	-3.842692e+01	-3.895241e+02
5.000000e-08	-7.127669e-06	-1.539442e-09	-3.841687e+01	-3.894361e+02
6.000000e-08	-7.124999e-06	-1.538505e-09	-3.840248e+01	-3.893363e+02
7.000000e-08	-7.121763e-06	-1.537303e-09	-3.838504e+01	-3.892261e+02
8.000000e-08	-7.118158e-06	-1.540365e-09	-3.836561e+01	-3.891067e+02
9.000000e-08	-7.114169e-06	-1.539611e-09	-3.834411e+01	-3.889795e+02
1.000000e-07	-7.109366e-06	-1.514663e-09	-3.831822e+01	-3.888457e+02
1.100000e-07	-7.103665e-06	-1.492181e-09	-3.828750e+01	-3.887066e+02
1.200000e-07	-7.097661e-06	-1.538326e-09	-3.825514e+01	-3.885632e+02
1.300000e-07	-7.091610e-06	-1.576899e-09	-3.822252e+01	-3.884165e+02
1.400000e-07	-7.085161e-06	-1.526501e-09	-3.818776e+01	-3.882672e+02
1.500000e-07	-7.078121e-06	-1.475926e-09	-3.814982e+01	-3.881160e+02
1.600000e-07	-7.070598e-06	-1.532662e-09	-3.810927e+01	-3.879634e+02
1.700000e-07	-7.062779e-06	-1.585775e-09	-3.806713e+01	-3.878096e+02
1.800000e-07	-7.054477e-06	-1.499106e-09	-3.802238e+01	-3.876550e+02
1.900000e-07	-7.045458e-06	-1.443620e-09	-3.797377e+01	-3.874993e+02
2.000000e-07	-7.035595e-06	-1.538187e-09	-3.792061e+01	-3.873423e+02
2.100000e-07	-7.025166e-06	-1.596111e-09	-3.786440e+01	-3.871837e+02
2.200000e-07	-7.014338e-06	-1.495817e-09	-3.780604e+01	-3.870229e+02
2.300000e-07	-7.002908e-06	-1.448563e-09	-3.774443e+01	-3.868591e+02
2.400000e-07	-6.990925e-06	-1.533261e-09	-3.767985e+01	-3.866916e+02
2.500000e-07	-6.978465e-06	-1.550020e-09	-3.761269e+01	-3.865193e+02
2.600000e-07	-6.965462e-06	-1.469572e-09	-3.754260e+01	-3.863411e+02
2.700000e-07	-6.951792e-06	-1.481001e-09	-3.746893e+01	-3.861560e+02
2.800000e-07	-6.937451e-06	-1.545657e-09	-3.739163e+01	-3.859626e+02
2.900000e-07	-6.922417e-06	-1.508101e-09	-3.731060e+01	-3.857598e+02
3.000000e-07	-6.906659e-06	-1.468580e-09	-3.722567e+01	-3.855463e+02
3.100000e-07	-6.890185e-06	-1.514760e-09	-3.713688e+01	-3.853208e+02
3.200000e-07	-6.873397e-06	-1.513173e-09	-3.704639e+01	-3.850821e+02
3.300000e-07	-6.856209e-06	-1.450674e-09	-3.695375e+01	-3.848291e+02
3.400000e-07	-6.838570e-06	-1.490161e-09	-3.685868e+01	-3.845606e+02
3.500000e-07	-6.820541e-06	-1.548742e-09	-3.676151e+01	-3.842755e+02
3.600000e-07	-6.801943e-06	-1.482812e-09	-3.666126e+01	-3.839731e+02
3.700000e-07	-6.782788e-06	-1.437916e-09	-3.655803e+01	-3.836524e+02
3.800000e-07	-6.763245e-06	-1.508265e-09	-3.645269e+01	-3.833128e+02
3.900000e-07	-6.743500e-06	-1.515113e-09	-3.634627e+01	-3.829538e+02
4.000000e-07	-6.723377e-06	-1.444145e-09	-3.623781e+01	-3.825747e+02
4.100000e-07	-6.702672e-06	-1.462540e-09	-3.612621e+01	-3.821755e+02
4.200000e-07	-6.681451e-06	-1.509245e-09	-3.601184e+01	-3.817557e+02
4.300000e-07	-6.659689e-06	-1.467315e-09	-3.589454e+01	-3.813155e+02
4.400000e-07	-6.637478e-06	-1.448906e-09	-3.577483e+01	-3.808547e+02
4.500000e-07	-6.614889e-06	-1.488439e-09	-3.565308e+01	-3.803737e+02
4.600000e-07	-6.591763e-06	-1.469260e-09	-3.552843e+01	-3.798724e+02
4.700000e-07	-6.568131e-06	-1.435264e-09	-3.540106e+01	-3.793514e+02
4.800000e-07	-6.544292e-06	-1.471884e-09	-3.527257e+01	-3.788109e+02
4.900000e-07	-6.520219e-06	-1.482283e-09	-3.514283e+01	-3.782513e+02
5.000000e-07	-6.495586e-06	-1.434741e-09	-3.501006e+01	-3.776732e+02
5.100000e-07	-6.470121e-06	-1.435946e-09	-3.487280e+01	-3.770770e+02
5.200000e-07	-6.443905e-06	-1.465384e-09	-3.473150e+01	-3.764631e+02
5.300000e-07	-6.417150e-06	-1.442973e-09	-3.458730e+01	-3.758321e+02
5.400000e-07	-6.389836e-06	-1.425494e-09	-3.444009e+01	-3.751844e+02
5.500000e-07	-6.362099e-06	-1.447910e-09	-3.429058e+01	-3.745204e+02
5.600000e-07	-6.334048e-06	-1.443712e-09	-3.413940e+01	-3.738406e+02
5.700000e-07	-6.305618e-06	-1.420775e-09	-3.398616e+01	-3.731453e+02
5.800000e-07	-6.276725e-06	-1.427836e-09	-3.383044e+01	-3.724347e+02
5.900000e-07	-6.247466e-06	-1.432752e-09	-3.367273e+01	-3.717092e+02
6.000000e-07	-6.217794e-06	-1.413411e-09	-3.351281e+01	-3.709690e+02
6.100000e-07	-6.187693e-06	-1.410124e-09	-3.335057e+01	-3.702141e+02
6.200000e-07	-6.157234e-06	-1.421237e-09	-3.318640e+01	-3.694447e+02
6.300000e-07	-6.126355e-06	-1.413333e-09	-3.301997e+01	-3.686609e+02
6.400000e-07	-6.095049e-06	-1.400191e-09	-3.285124e+01	-3.678626e+02
6.500000e-07	-6.063422e-06	-1.402501e-09	-3.268077e+01	-3.670498e+02
6.600000e-07	-6.031458e-06	-1.400502e-09	-3.250849e+01	-3.662224e+02
6.700000e-07	-5.999079e-06	-1.390454e-09	-3.233397e+01	-3.653803e+02
6.800000e-07	-5.966171e-06	-1.389618e-09	-3.215660e+01	-3.645235e+02
6.900000e-07	-5.932595e-06	-1.391300e-09	-3.197563e+01	-3.636518e+02
7.000000e-07	-5.898244e-06	-1.381050e-09	-3.179049e+01	-3.627650e+02
7.100000e-07	-5.863244e-06	-1.373127e-09	-3.160184e+01	-3.618631e+02
7.200000e-07	-5.827909e-06	-1.374145e-09	-3.141139e+01	-3.609458e+02
7.300000e-07	-5.792288e-06	-1.369730e-09	-3.121940e+01	-3.600132e+02
7.400000e-07	-5.756337e-06	-1.360268e-09	-3.102564e+01	-3.590650e+02
7.500000e-07	-5.720141e-06	-1.357270e-09	-3.083054e+01	-3.581012e+02
7.600000e-07	-5.683664e-06	-1.355997e-09	-3.063394e+01	-3.571217e+02
7.700000e-07	-5.646653e-06	-1.351074e-09	-3.043446e+01	-3.561263e+02
7.800000e-07	-5.609198e-06	-1.345753e-09	-3.023258e+01	-3.551152e+02
7.900000e-07	-5.571437e-06	-1.339175e-09	-3.002906e+01	-3.540881e+02
8.000000e-07	-5.533250e-06	-1.330801e-09	-2.982324e+01	-3.530451e+02
8.100000e-07	-5.494580e-06	-1.326086e-09	-2.961481e+01	-3.519860e+02
8.200000e-07	-5.455439e-06	-1.323613e-09	-2.940385e+01	-3.509109e+02
8.300000e-07	-5.416038e-06	-1.318442e-09	-2.919148e+01	-3.498195e+02
8.400000e-07	-5.376492e-06	-1.312752e-09	-2.897834e+01	-3.487119e+02
8.500000e-07	-5.336623e-06	-1.307820e-09	-2.876345e+01	-3.475878e+02
8.600000e-07	-5.296306e-06	-1.303578e-09	-2.854615e+01	-3.464471e+02
8.700000e-07	-5.255484e-06	-1.298876e-09	-2.832613e+01	-3.452895e+02
8.800000e-07	-5.214237e-06	-1.292873e-09	-2.810381e+01	-3.441148e+02
8.900000e-07	-5.172589e-06	-1.286497e-09	-2.787934e+01	-3.429225e+02
9.000000e-07	-5.130374e-06	-1.281908e-09	-2.765181e+01	-3.417124e+02
9.100000e-07	-5.087497e-06	-1.277484e-09	-2.742071e+01	-3.404840e+02
9.200000e-07	-5.044159e-06	-1.272872e-09	-2.718712e+01	-3.392367e+02
9.300000e-07	-5.000553e-06	-1.266878e-09	-2.695210e+01	-3.379701e+02
9.400000e-07	-4.956643e-06	-1.260077e-09	-2.671543e+01	-3.366833e+02
9.500000e-07	-4.912457e-06	-1.254345e-09	-2.647727e+01	-3.353759e+02
9.600000e-07	-4.868065e-06	-1.249080e-09	-2.623801e+01	-3.340470e+02
9.700000e-07	-4.823357e-06	-1.243672e-09	-2.599704e+01	-3.326958e+02
9.800000e-07	-4.778317e-06	-1.238087e-09	-2.575428e+01	-3.313217e+02
9.900000e-07	-4.732989e-06	-1.231768e-09	-2.550997e+01	-3.299237e+02
1.000000e-06	-4.687221e-06	-1.225494e-09	-2.526329e+01	-3.285010e+02
1.010000e-06	-4.641120e-06	-1.219154e-09	-2.501482e+01	-3.270528e+02
1.020000e-06	-4.594788e-06	-1.212935e-09	-2.476509e+01	-3.255783e+02
1.030000e-06	-4.548106e-06	-1.206099e-09	-2.451349e+01	-3.240766e+02
1.040000e-06	-4.501049e-06	-1.199315e-09	-2.425986e+01	-3.225470e+02
1.050000e-06	-4.453674e-06	-1.193491e-09	-2.400451e+01	-3.209888e+02
1.060000e-06	-4.406112e-06	-1.187530e-09	-2.374816e+01	-3.194013e+02
1.070000e-06	-4.358220e-06	-1.180563e-09	-2.349003e+01	-3.177839e+02
1.080000e-06	-4.309977e-06	-1.172669e-09	-2.323001e+01	-3.161360e+02
1.090000e-06	-4.261452e-06	-1.165038e-09	-2.296847e+01	-3.144573e+02
1.100000e-06	-4.212516e-06	-1.157977e-09	-2.270472e+01	-3.127473e+02
1.110000e-06	-4.163276e-06	-1.151574e-09	-2.243932e+01	-3.110057e+02
1.120000e-06	-4.113568e-06	-1.145097e-09	-2.217140e+01	-3.092324e+02
1.130000e-06	-4.063283e-06	-1.138341e-09	-2.190038e+01	-3.074272e+02
1.140000e-06	-4.012544e-06	-1.130697e-09	-2.162690e+01	-3.055901e+02
1.150000e-06	-3.961435e-06	-1.122047e-09	-2.135143e+01	-3.037211e+02
1.160000e-06	-3.910095e-06	-1.114170e-09	-2.107472e+01	-3.018203e+02
1.170000e-06	-3.858556e-06	-1.107064e-09	-2.079693e+01	-2.998880e+02
1.180000e-06	-3.806744e-06	-1.099233e-09	-2.051768e+01	-2.979243e+02
1.190000e-06	-3.754581e-06	-1.091657e-09	-2.023652e+01	-2.959296e+02
1.200000e-06	-3.702071e-06	-1.084063e-09	-1.995351e+01	-2.939042e+02
1.210000e-06	-3.649267e-06	-1.076427e-09	-1.966890e+01	-2.918483e+02
1.220000e-06	-3.596198e-06	-1.068353e-09	-1.938287e+01	-2.897625e+02
1.230000e-06	-3.542873e-06	-1.060185e-09	-1.909546e+01	-2.876470e+02
1.240000e-06	-3.489207e-06	-1.051998e-09	-1.880621e+01	-2.855022e+02
1.250000e-06	-3.435293e-06	-1.042893e-09	-1.851562e+01	-2.833284e+02
1.260000e-06	-3.381256e-06	-1.033560e-09	-1.822437e+01	-2.811260e+02
1.270000e-06	-3.326965e-06	-1.024399e-09	-1.793175e+01	-2.788952e+02
1.280000e-06	-3.272412e-06	-1.015342e-09	-1.763772e+01	-2.766362e+02
1.290000e-06	-3.217677e-06	-1.007524e-09	-1.734271e+01	-2.743493e+02
1.300000e-06	-3.162763e-06	-1.000196e-09	-1.704673e+01	-2.720345e+02
1.310000e-06	-3.107679e-06	-9.912681e-10	-1.674984e+01	-2.696919e+02
1.320000e-06	-3.052444e-06	-9.812169e-10	-1.645213e+01	-2.673215e+02
1.330000e-06	-2.997019e-06	-9.706718e-10	-1.615340e+01	-2.649232e+02
1.340000e-06	-2.941393e-06	-9.596661e-10	-1.585359e+01	-2.624970e+02
1.350000e-06	-2.885636e-06	-9.501948e-10	-1.555306e+01	-2.600425e+02
1.360000e-06	-2.829692e-06	-9.423613e-10	-1.525154e+01	-2.575595e+02
1.370000e-06	-2.773495e-06	-9.338207e-10	-1.494865e+01	-2.550478e+02
1.380000e-06	-2.717116e-06	-9.245606e-10	-1.464478e+01	-2.525069e+02
1.390000e-06	-2.660613e-06	-9.153068e-10	-1.434023e+01	-2.499364e+02
1.400000e-06	-2.603956e-06	-9.054873e-10	-1.403486e+01	-2.473358e+02
1.410000e-06	-2.547027e-06	-8.942496e-10	-1.372802e+01	-2.447047e+02
1.420000e-06	-2.489837e-06	-8.830470e-10	-1.341978e+01	-2.420423e+02
1.430000e-06	-2.432423e-06	-8.726135e-10	-1.311033e+01	-2.393481e+02
1.440000e-06	-2.374717e-06	-8.627214e-10	-1.279930e+01	-2.366215e+02
1.450000e-06	-2.316666e-06	-8.531140e-10	-1.248642e+01	-2.338617e+02
1.460000e-06	-2.258308e-06	-8.428998e-10	-1.217188e+01	-2.310679e+02
1.470000e-06	-2.199681e-06	-8.316861e-10	-1.185589e+01	-2.282394e+02
1.480000e-06	-2.140847e-06	-8.199645e-10	-1.153879e+01	-2.253752e+02
1.490000e-06	-2.081809e-06	-8.090341e-10	-1.122058e+01	-2.224744e+02
1.500000e-06	-2.022635e-06	-7.984202e-10	-1.090164e+01	-2.195360e+02
1.510000e-06	-1.963367e-06	-7.862644e-10	-1.058220e+01	-2.165590e+02
1.520000e-06	-1.903988e-06	-7.740425e-10	-1.026216e+01	-2.135421e+02
1.530000e-06	-1.844561e-06	-7.629235e-10	-9.941856e+00	-2.104840e+02
1.540000e-06	-1.785049e-06	-7.512626e-10	-9.621097e+00	-2.073835e+02
1.550000e-06	-1.725505e-06	-7.386678e-10	-9.300169e+00	-2.042391e+02
1.560000e-06	-1.665895e-06	-7.268300e-10	-8.978876e+00	-2.010491e+02
1.570000e-06	-1.606123e-06	-7.157473e-10	-8.656720e+00	-1.978118e+02
1.580000e-06	-1.546225e-06	-7.036002e-10	-8.333878e+00	-1.945253e+02
1.590000e-06	-1.486283e-06	-6.907342e-10	-8.010802e+00	-1.911878e+02
1.600000e-06	-1.426299e-06	-6.781565e-10	-7.687500e+00	-1.877971e+02
1.610000e-06	-1.366227e-06	-6.654155e-10	-7.363721e+00	-1.843509e+02
1.620000e-06	-1.306011e-06	-6.526978e-10	-7.039170e+00	-1.808469e+02
1.630000e-06	-1.245673e-06	-6.405011e-10	-6.713957e+00	-1.772827e+02
1.640000e-06	-1.185350e-06	-6.279005e-10	-6.388827e+00	-1.736556e+02
1.650000e-06	-1.124989e-06	-6.141795e-10	-6.063489e+00	-1.699631e+02
1.660000e-06	-1.064554e-06	-6.000190e-10	-5.737758e+00	-1.662025e+02
1.670000e-06	-1.004080e-06	-5.863181e-10	-5.411811e+00	-1.623710e+02
1.680000e-06	-9.434222e-07	-5.720576e-10	-5.084879e+00	-1.584660e+02
1.690000e-06	-8.826322e-07	-5.570334e-10	-4.757231e+00	-1.544847e+02
1.700000e-06	-8.218434e-07	-5.422973e-10	-4.429590e+00	-1.504246e+02
1.710000e-06	-7.609966e-07	-5.274913e-10	-4.101637e+00	-1.462831e+02
1.720000e-06	-7.001195e-07	-5.126311e-10	-3.773520e+00	-1.420579e+02
1.730000e-06	-6.392232e-07	-4.983341e-10	-3.445300e+00	-1.377468e+02
1.740000e-06	-5.782582e-07	-4.836795e-10	-3.116709e+00	-1.333479e+02
1.750000e-06	-5.172673e-07	-4.679298e-10	-2.787979e+00	-1.288596e+02
1.760000e-06	-4.562463e-07	-4.509518e-10	-2.459087e+00	-1.242804e+02
1.770000e-06	-3.952116e-07	-4.332808e-10	-2.130120e+00	-1.196095e+02
1.780000e-06	-3.341147e-07	-4.157264e-10	-1.800819e+00	-1.148462e+02
1.790000e-06	-2.729171e-07	-3.976723e-10	-1.470975e+00	-1.099904e+02
1.800000e-06	-2.117517e-07	-3.795662e-10	-1.141304e+00	-1.050425e+02
1.810000e-06	-1.506146e-07	-3.621127e-10	-8.117858e-01	-1.000032e+02
1.820000e-06	-8.944742e-08	-3.447517e-10	-4.821057e-01	-9.487399e+01
1.830000e-06	-2.831505e-08	-3.276889e-10	-1.526131e-01	-8.965664e+01
1.840000e-06	3.278419e-08	-3.096627e-10	1.767010e-01	-8.435361e+01
1.850000e-06	9.384800e-08	-2.899592e-10	5.058241e-01	-7.896787e+01
1.860000e-06	1.549225e-07	-2.692172e-10	8.350050e-01	-7.350292e+01
1.870000e-06	2.159831e-07	-2.475342e-10	1.164110e+00	-6.796281e+01
1.880000e-06	2.770163e-07	-2.248399e-10	1.493069e+00	-6.235209e+01
1.890000e-06	3.381266e-07	-2.022817e-10	1.822442e+00	-5.667580e+01
1.900000e-06	3.992676e-07	-1.814207e-10	2.151982e+00	-5.093942e+01
1.910000e-06	4.602991e-07	-1.614299e-10	2.480931e+00	-4.514886e+01
1.920000e-06	5.212949e-07	-1.415323e-10	2.809687e+00	-3.931038e+01
1.930000e-06	5.823265e-07	-1.208123e-10	3.138637e+00	-3.343056e+01
1.940000e-06	6.433662e-07	-9.826146e-11	3.467630e+00	-2.751624e+01
1.950000e-06	7.042322e-07	-7.511355e-11	3.795687e+00	-2.157443e+01
1.960000e-06	7.648987e-07	-5.210405e-11	4.122668e+00	-1.561231e+01
1.970000e-06	8.255664e-07	-2.981977e-11	4.449657e+00	-9.637095e+00
1.980000e-06	8.862284e-07	-8.223954e-12	4.776614e+00	-3.656008e+00
1.990000e-06	9.468724e-07	1.429383e-11	5.103474e+00	2.323795e+00
2.000000e-06	1.007487e-06	3.586734e-11	5.430176e+00	8.295295e+00
2.010000e-06	1.068011e-06	5.556242e-11	5.756388e+00	1.425167e+01
2.020000e-06	1.128438e-06	7.583045e-11	6.082083e+00	2.018636e+01
2.030000e-06	1.188783e-06	9.717110e-11	6.407331e+00	2.609311e+01
2.040000e-06	1.249054e-06	1.194478e-10	6.732181e+00	3.196604e+01
2.050000e-06	1.309274e-06	1.426762e-10	7.056754e+00	3.779968e+01
2.060000e-06	1.369446e-06	1.656688e-10	7.381072e+00	4.358901e+01
2.070000e-06	1.429483e-06	1.871668e-10	7.704658e+00	4.932949e+01
2.080000e-06	1.489357e-06	2.071171e-10	8.027370e+00	5.501708e+01
2.090000e-06	1.549232e-06	2.270044e-10	8.350087e+00	6.064827e+01
2.100000e-06	1.609053e-06	2.470462e-10	8.672509e+00	6.622006e+01
2.110000e-06	1.668744e-06	2.668609e-10	8.994237e+00	7.173000e+01
2.120000e-06	1.728349e-06	2.868131e-10	9.315496e+00	7.717616e+01
2.130000e-06	1.787893e-06	3.077733e-10	9.636427e+00	8.255708e+01
2.140000e-06	1.847409e-06	3.289226e-10	9.957208e+00	8.787183e+01
2.150000e-06	1.906886e-06	3.485561e-10	1.027778e+01	9.311990e+01
2.160000e-06	1.966315e-06	3.673629e-10	1.059809e+01	9.830121e+01
2.170000e-06	2.025661e-06	3.860204e-10	1.091796e+01	1.034161e+02
2.180000e-06	2.084847e-06	4.045654e-10	1.123695e+01	1.084651e+02
2.190000e-06	2.143822e-06	4.235411e-10	1.155482e+01	1.134492e+02
2.200000e-06	2.202606e-06	4.418424e-10	1.187166e+01	1.183695e+02
2.210000e-06	2.261241e-06	4.587477e-10	1.218769e+01	1.232274e+02
2.220000e-06	2.319583e-06	4.755553e-10	1.250214e+01	1.280243e+02
2.230000e-06	2.377574e-06	4.922992e-10	1.281471e+01	1.327619e+02
2.240000e-06	2.435222e-06	5.091432e-10	1.312542e+01	1.374416e+02
2.250000e-06	2.492545e-06	5.262151e-10	1.343437e+01	1.420652e+02
2.260000e-06	2.549631e-06	5.428229e-10	1.374206e+01	1.466341e+02
2.270000e-06	2.606402e-06	5.595789e-10	1.404805e+01	1.511498e+02
2.280000e-06	2.662810e-06	5.767327e-10	1.435207e+01	1.556137e+02
2.290000e-06	2.718998e-06	5.928346e-10	1.465492e+01	1.600268e+02
2.300000e-06	2.775025e-06	6.073794e-10	1.495689e+01	1.643903e+02
2.310000e-06	2.830860e-06	6.216234e-10	1.525783e+01	1.687050e+02
2.320000e-06	2.886601e-06	6.366987e-10	1.555827e+01	1.729714e+02
2.330000e-06	2.942224e-06	6.526620e-10	1.585807e+01	1.771899e+02
2.340000e-06	2.997703e-06	6.684931e-10	1.615709e+01	1.813609e+02
2.350000e-06	3.053048e-06	6.834370e-10	1.645539e+01	1.854843e+02
2.360000e-06	3.108208e-06	6.981378e-10	1.675269e+01	1.895600e+02
2.370000e-06	3.163163e-06	7.128125e-10	1.704889e+01	1.935875e+02
2.380000e-06	3.217850e-06	7.269124e-10	1.734364e+01	1.975664e+02
2.390000e-06	3.272351e-06	7.403037e-10	1.763739e+01	2.014961e+02
2.400000e-06	3.326669e-06	7.528268e-10	1.793015e+01	2.053758e+02
2.410000e-06	3.380767e-06	7.652676e-10	1.822173e+01	2.092048e+02
2.420000e-06	3.434672e-06	7.788355e-10	1.851227e+01	2.129820e+02
2.430000e-06	3.488302e-06	7.933831e-10	1.880133e+01	2.167068e+02
2.440000e-06	3.541720e-06	8.076959e-10	1.908924e+01	2.203780e+02
2.450000e-06	3.594862e-06	8.209508e-10	1.937567e+01	2.239950e+02
2.460000e-06	3.647655e-06	8.339186e-10	1.966022e+01	2.275568e+02
2.470000e-06	3.700214e-06	8.469686e-10	1.994350e+01	2.310628e+02
2.480000e-06	3.752481e-06	8.590881e-10	2.022521e+01	2.345123e+02
2.490000e-06	3.804402e-06	8.701701e-10	2.050505e+01	2.379047e+02
2.500000e-06	3.856070e-06	8.811427e-10	2.078353e+01	2.412397e+02
2.510000e-06	3.907443e-06	8.933734e-10	2.106042e+01	2.445170e+02
2.520000e-06	3.958393e-06	9.062913e-10	2.133504e+01	2.477365e+02
2.530000e-06	4.008957e-06	9.185234e-10	2.160757e+01	2.508980e+02
2.540000e-06	4.059203e-06	9.298949e-10	2.187838e+01	2.540019e+02
2.550000e-06	4.108998e-06	9.408166e-10	2.214677e+01	2.570483e+02
2.560000e-06	4.158245e-06	9.518846e-10	2.241221e+01	2.600377e+02
2.570000e-06	4.207006e-06	9.629054e-10	2.267501e+01	2.629705e+02
2.580000e-06	4.255385e-06	9.736980e-10	2.293577e+01	2.658473e+02
2.590000e-06	4.303428e-06	9.842578e-10	2.319471e+01	2.686689e+02
2.600000e-06	4.351217e-06	9.947809e-10	2.345229e+01	2.714360e+02
2.610000e-06	4.398807e-06	1.005206e-09	2.370879e+01	2.741494e+02
2.620000e-06	4.446082e-06	1.015443e-09	2.396359e+01	2.768099e+02
2.630000e-06	4.492999e-06	1.025618e-09	2.421647e+01	2.794185e+02
2.640000e-06	4.539695e-06	1.035388e-09	2.446815e+01	2.819759e+02
2.650000e-06	4.586105e-06	1.045112e-09	2.471829e+01	2.844831e+02
2.660000e-06	4.632189e-06	1.054922e-09	2.496668e+01	2.869408e+02
2.670000e-06	4.677954e-06	1.064072e-09	2.521334e+01	2.893499e+02
2.680000e-06	4.723369e-06	1.072179e-09	2.545812e+01	2.917111e+02
2.690000e-06	4.768485e-06	1.079958e-09	2.570129e+01	2.940251e+02
2.700000e-06	4.813260e-06	1.088824e-09	2.594262e+01	2.962926e+02
2.710000e-06	4.857743e-06	1.097833e-09	2.618237e+01	2.985143e+02
2.720000e-06	4.901917e-06	1.105779e-09	2.642047e+01	3.006906e+02
2.730000e-06	4.945782e-06	1.113451e-09	2.665689e+01	3.028221e+02
2.740000e-06	4.989464e-06	1.121060e-09	2.689233e+01	3.049093e+02
2.750000e-06	5.032941e-06	1.128334e-09	2.712666e+01	3.069527e+02
2.760000e-06	5.076193e-06	1.135916e-09	2.735978e+01	3.089527e+02
2.770000e-06	5.119086e-06	1.143738e-09	2.759097e+01	3.109099e+02
2.780000e-06	5.161373e-06	1.151055e-09	2.781889e+01	3.128246e+02
2.790000e-06	5.203008e-06	1.157617e-09	2.804329e+01	3.146975e+02
2.800000e-06	5.243944e-06	1.164010e-09	2.826393e+01	3.165290e+02
2.810000e-06	5.284359e-06	1.171124e-09	2.848176e+01	3.183197e+02
2.820000e-06	5.324403e-06	1.178903e-09	2.869759e+01	3.200704e+02
2.830000e-06	5.364122e-06	1.186921e-09	2.891167e+01	3.217819e+02
2.840000e-06	5.403585e-06	1.194589e-09	2.912436e+01	3.234548e+02
2.850000e-06	5.442826e-06	1.201742e-09	2.933587e+01	3.250903e+02
2.860000e-06	5.481911e-06	1.208841e-09	2.954653e+01	3.266893e+02
2.870000e-06	5.520575e-06	1.215676e-09	2.975492e+01	3.282530e+02
2.880000e-06	5.558597e-06	1.221432e-09	2.995985e+01	3.297825e+02
2.890000e-06	5.596151e-06	1.226139e-09	3.016226e+01	3.312793e+02
2.900000e-06	5.633366e-06	1.231233e-09	3.036284e+01	3.327447e+02
