# Temperatura_=_-10.7
# Concentracion g/m^3_=_7400.0
# C_Vs_to_Am_M_A/Vsm_=_254322799225.57578
# pendiente_HvsI_1/m_=_3716.3
# ordenada_HvsI_A/m_=_1297.0
# frecuencia_Hz_=_136111.55500552536

Tiempo_(s)	Campo_(V.s)	Magnetizacion_(V.s)	Campo_(kA/m)	Magnetizacion_(A/m)
0.000000e+00	-7.108023e-06	-1.213229e-09	-3.843066e+01	-3.085870e+02
1.000000e-08	-7.108186e-06	-1.212428e-09	-3.843153e+01	-3.084899e+02
2.000000e-08	-7.107948e-06	-1.213044e-09	-3.843025e+01	-3.083830e+02
3.000000e-08	-7.107007e-06	-1.214588e-09	-3.842516e+01	-3.082672e+02
4.000000e-08	-7.105372e-06	-1.214267e-09	-3.841632e+01	-3.081429e+02
5.000000e-08	-7.103022e-06	-1.211605e-09	-3.840362e+01	-3.080109e+02
6.000000e-08	-7.099981e-06	-1.207236e-09	-3.838717e+01	-3.078715e+02
7.000000e-08	-7.096417e-06	-1.202370e-09	-3.836791e+01	-3.077253e+02
8.000000e-08	-7.092182e-06	-1.205443e-09	-3.834501e+01	-3.075726e+02
9.000000e-08	-7.087277e-06	-1.221526e-09	-3.831849e+01	-3.074136e+02
1.000000e-07	-7.081916e-06	-1.220691e-09	-3.828950e+01	-3.072486e+02
1.100000e-07	-7.076207e-06	-1.189070e-09	-3.825863e+01	-3.070775e+02
1.200000e-07	-7.070128e-06	-1.170656e-09	-3.822577e+01	-3.069006e+02
1.300000e-07	-7.063643e-06	-1.209515e-09	-3.819071e+01	-3.067178e+02
1.400000e-07	-7.056705e-06	-1.231515e-09	-3.815320e+01	-3.065289e+02
1.500000e-07	-7.049339e-06	-1.178008e-09	-3.811337e+01	-3.063340e+02
1.600000e-07	-7.041632e-06	-1.153404e-09	-3.807170e+01	-3.061330e+02
1.700000e-07	-7.033479e-06	-1.216288e-09	-3.802762e+01	-3.059255e+02
1.800000e-07	-7.024635e-06	-1.243415e-09	-3.797980e+01	-3.057116e+02
1.900000e-07	-7.015126e-06	-1.163336e-09	-3.792839e+01	-3.054910e+02
2.000000e-07	-7.004998e-06	-1.134100e-09	-3.787363e+01	-3.052636e+02
2.100000e-07	-6.994229e-06	-1.209891e-09	-3.781541e+01	-3.050292e+02
2.200000e-07	-6.983007e-06	-1.224657e-09	-3.775474e+01	-3.047877e+02
2.300000e-07	-6.971197e-06	-1.150817e-09	-3.769088e+01	-3.045390e+02
2.400000e-07	-6.958726e-06	-1.152090e-09	-3.762346e+01	-3.042830e+02
2.500000e-07	-6.945810e-06	-1.210428e-09	-3.755362e+01	-3.040196e+02
2.600000e-07	-6.932257e-06	-1.184126e-09	-3.748035e+01	-3.037489e+02
2.700000e-07	-6.917847e-06	-1.136757e-09	-3.740244e+01	-3.034706e+02
2.800000e-07	-6.902607e-06	-1.173011e-09	-3.732004e+01	-3.031850e+02
2.900000e-07	-6.886790e-06	-1.192646e-09	-3.723452e+01	-3.028920e+02
3.000000e-07	-6.870527e-06	-1.144201e-09	-3.714660e+01	-3.025916e+02
3.100000e-07	-6.853852e-06	-1.153686e-09	-3.705644e+01	-3.022840e+02
3.200000e-07	-6.836845e-06	-1.197027e-09	-3.696449e+01	-3.019690e+02
3.300000e-07	-6.819238e-06	-1.153702e-09	-3.686929e+01	-3.016468e+02
3.400000e-07	-6.801122e-06	-1.116431e-09	-3.677135e+01	-3.013173e+02
3.500000e-07	-6.782710e-06	-1.174323e-09	-3.667180e+01	-3.009806e+02
3.600000e-07	-6.763806e-06	-1.186392e-09	-3.656959e+01	-3.006365e+02
3.700000e-07	-6.744426e-06	-1.121483e-09	-3.646481e+01	-3.002849e+02
3.800000e-07	-6.724640e-06	-1.131812e-09	-3.635783e+01	-2.999256e+02
3.900000e-07	-6.704428e-06	-1.180866e-09	-3.624856e+01	-2.995585e+02
4.000000e-07	-6.683797e-06	-1.144925e-09	-3.613701e+01	-2.991832e+02
4.100000e-07	-6.662670e-06	-1.115258e-09	-3.602278e+01	-2.987994e+02
4.200000e-07	-6.641102e-06	-1.154074e-09	-3.590617e+01	-2.984065e+02
4.300000e-07	-6.619066e-06	-1.151618e-09	-3.578703e+01	-2.980041e+02
4.400000e-07	-6.596621e-06	-1.117203e-09	-3.566568e+01	-2.975916e+02
4.500000e-07	-6.573824e-06	-1.140639e-09	-3.554242e+01	-2.971682e+02
4.600000e-07	-6.550596e-06	-1.151124e-09	-3.541684e+01	-2.967333e+02
4.700000e-07	-6.527066e-06	-1.112186e-09	-3.528962e+01	-2.962861e+02
4.800000e-07	-6.503170e-06	-1.116773e-09	-3.516042e+01	-2.958257e+02
4.900000e-07	-6.478655e-06	-1.144904e-09	-3.502788e+01	-2.953512e+02
5.000000e-07	-6.453435e-06	-1.122971e-09	-3.489152e+01	-2.948618e+02
5.100000e-07	-6.427517e-06	-1.109080e-09	-3.475139e+01	-2.943564e+02
5.200000e-07	-6.400889e-06	-1.129936e-09	-3.460742e+01	-2.938343e+02
5.300000e-07	-6.373630e-06	-1.123304e-09	-3.446004e+01	-2.932944e+02
5.400000e-07	-6.345970e-06	-1.106613e-09	-3.431049e+01	-2.927359e+02
5.500000e-07	-6.318070e-06	-1.116759e-09	-3.415965e+01	-2.921579e+02
5.600000e-07	-6.289861e-06	-1.116456e-09	-3.400713e+01	-2.915598e+02
5.700000e-07	-6.261181e-06	-1.103219e-09	-3.385207e+01	-2.909408e+02
5.800000e-07	-6.232126e-06	-1.108644e-09	-3.369498e+01	-2.903003e+02
5.900000e-07	-6.202689e-06	-1.112159e-09	-3.353582e+01	-2.896379e+02
6.000000e-07	-6.172804e-06	-1.101214e-09	-3.337424e+01	-2.889532e+02
6.100000e-07	-6.142515e-06	-1.098051e-09	-3.321048e+01	-2.882459e+02
6.200000e-07	-6.111789e-06	-1.097696e-09	-3.304436e+01	-2.875159e+02
6.300000e-07	-6.080588e-06	-1.091034e-09	-3.287566e+01	-2.867632e+02
6.400000e-07	-6.048988e-06	-1.090423e-09	-3.270481e+01	-2.859880e+02
6.500000e-07	-6.017148e-06	-1.089831e-09	-3.253267e+01	-2.851905e+02
6.600000e-07	-5.985004e-06	-1.083028e-09	-3.235888e+01	-2.843712e+02
6.700000e-07	-5.952328e-06	-1.079927e-09	-3.218221e+01	-2.835305e+02
6.800000e-07	-5.918921e-06	-1.077594e-09	-3.200159e+01	-2.826693e+02
6.900000e-07	-5.884838e-06	-1.070700e-09	-3.181731e+01	-2.817881e+02
7.000000e-07	-5.850174e-06	-1.067561e-09	-3.162989e+01	-2.808879e+02
7.100000e-07	-5.815007e-06	-1.064573e-09	-3.143976e+01	-2.799695e+02
7.200000e-07	-5.779488e-06	-1.057660e-09	-3.124772e+01	-2.790340e+02
7.300000e-07	-5.743719e-06	-1.054343e-09	-3.105433e+01	-2.780824e+02
7.400000e-07	-5.707711e-06	-1.053003e-09	-3.085965e+01	-2.771156e+02
7.500000e-07	-5.671368e-06	-1.047423e-09	-3.066315e+01	-2.761348e+02
7.600000e-07	-5.634607e-06	-1.042659e-09	-3.046440e+01	-2.751409e+02
7.700000e-07	-5.597458e-06	-1.038895e-09	-3.026355e+01	-2.741348e+02
7.800000e-07	-5.559819e-06	-1.032137e-09	-3.006004e+01	-2.731176e+02
7.900000e-07	-5.521621e-06	-1.026064e-09	-2.985352e+01	-2.720900e+02
8.000000e-07	-5.483093e-06	-1.022181e-09	-2.964521e+01	-2.710527e+02
8.100000e-07	-5.444214e-06	-1.017112e-09	-2.943501e+01	-2.700064e+02
8.200000e-07	-5.404999e-06	-1.011881e-09	-2.922298e+01	-2.689516e+02
8.300000e-07	-5.365539e-06	-1.008347e-09	-2.900964e+01	-2.678885e+02
8.400000e-07	-5.325680e-06	-1.003974e-09	-2.879413e+01	-2.668175e+02
8.500000e-07	-5.285542e-06	-9.984350e-10	-2.857712e+01	-2.657385e+02
8.600000e-07	-5.245117e-06	-9.931099e-10	-2.835856e+01	-2.646514e+02
8.700000e-07	-5.204295e-06	-9.872784e-10	-2.813784e+01	-2.635560e+02
8.800000e-07	-5.163020e-06	-9.817785e-10	-2.791469e+01	-2.624520e+02
8.900000e-07	-5.121201e-06	-9.770058e-10	-2.768858e+01	-2.613386e+02
9.000000e-07	-5.078747e-06	-9.718885e-10	-2.745905e+01	-2.602153e+02
9.100000e-07	-5.035736e-06	-9.676085e-10	-2.722651e+01	-2.590812e+02
9.200000e-07	-4.992291e-06	-9.626520e-10	-2.699161e+01	-2.579353e+02
9.300000e-07	-4.948479e-06	-9.558983e-10	-2.675473e+01	-2.567767e+02
9.400000e-07	-4.904386e-06	-9.490863e-10	-2.651634e+01	-2.556042e+02
9.500000e-07	-4.860059e-06	-9.430501e-10	-2.627668e+01	-2.544166e+02
9.600000e-07	-4.815477e-06	-9.368043e-10	-2.603564e+01	-2.532126e+02
9.700000e-07	-4.770632e-06	-9.310278e-10	-2.579318e+01	-2.519910e+02
9.800000e-07	-4.725490e-06	-9.257600e-10	-2.554911e+01	-2.507506e+02
9.900000e-07	-4.680001e-06	-9.209773e-10	-2.530317e+01	-2.494899e+02
1.000000e-06	-4.634156e-06	-9.154689e-10	-2.505530e+01	-2.482077e+02
1.010000e-06	-4.587953e-06	-9.094440e-10	-2.480550e+01	-2.469028e+02
1.020000e-06	-4.541446e-06	-9.034966e-10	-2.455405e+01	-2.455741e+02
1.030000e-06	-4.494591e-06	-8.975002e-10	-2.430072e+01	-2.442204e+02
1.040000e-06	-4.447522e-06	-8.913950e-10	-2.404623e+01	-2.428407e+02
1.050000e-06	-4.400204e-06	-8.855452e-10	-2.379040e+01	-2.414341e+02
1.060000e-06	-4.352462e-06	-8.793616e-10	-2.353228e+01	-2.399996e+02
1.070000e-06	-4.304420e-06	-8.732226e-10	-2.327253e+01	-2.385367e+02
1.080000e-06	-4.256070e-06	-8.680022e-10	-2.301112e+01	-2.370446e+02
1.090000e-06	-4.207272e-06	-8.621288e-10	-2.274729e+01	-2.355229e+02
1.100000e-06	-4.158163e-06	-8.551078e-10	-2.248177e+01	-2.339711e+02
1.110000e-06	-4.108778e-06	-8.483462e-10	-2.221476e+01	-2.323889e+02
1.120000e-06	-4.058960e-06	-8.426994e-10	-2.194541e+01	-2.307760e+02
1.130000e-06	-4.008688e-06	-8.369907e-10	-2.167361e+01	-2.291325e+02
1.140000e-06	-3.957925e-06	-8.302094e-10	-2.139915e+01	-2.274582e+02
1.150000e-06	-3.906729e-06	-8.236959e-10	-2.112235e+01	-2.257531e+02
1.160000e-06	-3.855203e-06	-8.171007e-10	-2.084377e+01	-2.240175e+02
1.170000e-06	-3.803430e-06	-8.100421e-10	-2.056385e+01	-2.222514e+02
1.180000e-06	-3.751422e-06	-8.039010e-10	-2.028266e+01	-2.204551e+02
1.190000e-06	-3.699148e-06	-7.970646e-10	-2.000003e+01	-2.186288e+02
1.200000e-06	-3.646634e-06	-7.900654e-10	-1.971610e+01	-2.167727e+02
1.210000e-06	-3.593845e-06	-7.832384e-10	-1.943069e+01	-2.148872e+02
1.220000e-06	-3.540737e-06	-7.761672e-10	-1.914356e+01	-2.129725e+02
1.230000e-06	-3.487369e-06	-7.693278e-10	-1.885501e+01	-2.110290e+02
1.240000e-06	-3.433822e-06	-7.619945e-10	-1.856550e+01	-2.090569e+02
1.250000e-06	-3.380002e-06	-7.533816e-10	-1.827452e+01	-2.070564e+02
1.260000e-06	-3.325942e-06	-7.449119e-10	-1.798224e+01	-2.050279e+02
1.270000e-06	-3.271675e-06	-7.373531e-10	-1.768883e+01	-2.029715e+02
1.280000e-06	-3.217258e-06	-7.302323e-10	-1.739462e+01	-2.008874e+02
1.290000e-06	-3.162707e-06	-7.229815e-10	-1.709968e+01	-1.987759e+02
1.300000e-06	-3.107836e-06	-7.152182e-10	-1.680301e+01	-1.966369e+02
1.310000e-06	-3.052517e-06	-7.069290e-10	-1.650392e+01	-1.944707e+02
1.320000e-06	-2.996948e-06	-6.977505e-10	-1.620347e+01	-1.922774e+02
1.330000e-06	-2.941384e-06	-6.878692e-10	-1.590306e+01	-1.900570e+02
1.340000e-06	-2.885770e-06	-6.794006e-10	-1.560238e+01	-1.878096e+02
1.350000e-06	-2.830091e-06	-6.723753e-10	-1.530133e+01	-1.855353e+02
1.360000e-06	-2.774285e-06	-6.649112e-10	-1.499961e+01	-1.832341e+02
1.370000e-06	-2.718309e-06	-6.569053e-10	-1.469697e+01	-1.809060e+02
1.380000e-06	-2.662167e-06	-6.490690e-10	-1.439343e+01	-1.785512e+02
1.390000e-06	-2.605842e-06	-6.407934e-10	-1.408890e+01	-1.761696e+02
1.400000e-06	-2.549323e-06	-6.311614e-10	-1.378332e+01	-1.737613e+02
1.410000e-06	-2.492557e-06	-6.210895e-10	-1.347640e+01	-1.713264e+02
1.420000e-06	-2.435505e-06	-6.108061e-10	-1.316794e+01	-1.688649e+02
1.430000e-06	-2.378137e-06	-6.007993e-10	-1.285778e+01	-1.663770e+02
1.440000e-06	-2.320435e-06	-5.918185e-10	-1.254580e+01	-1.638627e+02
1.450000e-06	-2.262399e-06	-5.831916e-10	-1.223202e+01	-1.613220e+02
1.460000e-06	-2.204112e-06	-5.735334e-10	-1.191688e+01	-1.587552e+02
1.470000e-06	-2.145675e-06	-5.629676e-10	-1.160093e+01	-1.561621e+02
1.480000e-06	-2.087050e-06	-5.532535e-10	-1.128397e+01	-1.535430e+02
1.490000e-06	-2.028173e-06	-5.431583e-10	-1.096564e+01	-1.508978e+02
1.500000e-06	-1.969044e-06	-5.317392e-10	-1.064595e+01	-1.482265e+02
1.510000e-06	-1.909798e-06	-5.216169e-10	-1.032562e+01	-1.455291e+02
1.520000e-06	-1.850473e-06	-5.120127e-10	-1.000488e+01	-1.428055e+02
1.530000e-06	-1.791053e-06	-5.011243e-10	-9.683613e+00	-1.400556e+02
1.540000e-06	-1.731631e-06	-4.899788e-10	-9.362339e+00	-1.372792e+02
1.550000e-06	-1.672100e-06	-4.794911e-10	-9.040472e+00	-1.344760e+02
1.560000e-06	-1.612461e-06	-4.687997e-10	-8.718027e+00	-1.316458e+02
1.570000e-06	-1.552786e-06	-4.577592e-10	-8.395384e+00	-1.287880e+02
1.580000e-06	-1.492995e-06	-4.468200e-10	-8.072112e+00	-1.259023e+02
1.590000e-06	-1.433153e-06	-4.355877e-10	-7.748571e+00	-1.229880e+02
1.600000e-06	-1.373231e-06	-4.248517e-10	-7.424591e+00	-1.200445e+02
1.610000e-06	-1.313260e-06	-4.148358e-10	-7.100346e+00	-1.170710e+02
1.620000e-06	-1.253321e-06	-4.038213e-10	-6.776282e+00	-1.140668e+02
1.630000e-06	-1.193169e-06	-3.918460e-10	-6.451060e+00	-1.110310e+02
1.640000e-06	-1.132866e-06	-3.794128e-10	-6.125020e+00	-1.079627e+02
1.650000e-06	-1.072587e-06	-3.671521e-10	-5.799113e+00	-1.048608e+02
1.660000e-06	-1.012236e-06	-3.562466e-10	-5.472817e+00	-1.017243e+02
1.670000e-06	-9.518481e-07	-3.449901e-10	-5.146318e+00	-9.855230e+01
1.680000e-06	-8.913596e-07	-3.325664e-10	-4.819277e+00	-9.534364e+01
1.690000e-06	-8.307098e-07	-3.202938e-10	-4.491365e+00	-9.209733e+01
1.700000e-06	-7.700386e-07	-3.084470e-10	-4.163336e+00	-8.881236e+01
1.710000e-06	-7.093327e-07	-2.967763e-10	-3.835120e+00	-8.548779e+01
1.720000e-06	-6.485851e-07	-2.856655e-10	-3.506678e+00	-8.212273e+01
1.730000e-06	-5.877728e-07	-2.743467e-10	-3.177887e+00	-7.871642e+01
1.740000e-06	-5.268876e-07	-2.620123e-10	-2.848702e+00	-7.526816e+01
1.750000e-06	-4.660222e-07	-2.491098e-10	-2.519623e+00	-7.177743e+01
1.760000e-06	-4.051138e-07	-2.354776e-10	-2.190312e+00	-6.824383e+01
1.770000e-06	-3.441594e-07	-2.212293e-10	-1.860753e+00	-6.466715e+01
1.780000e-06	-2.832368e-07	-2.064006e-10	-1.531365e+00	-6.104734e+01
1.790000e-06	-2.223425e-07	-1.919961e-10	-1.202130e+00	-5.738458e+01
1.800000e-06	-1.614200e-07	-1.794910e-10	-8.727430e-01	-5.367924e+01
1.810000e-06	-1.004733e-07	-1.681065e-10	-5.432250e-01	-4.993192e+01
1.820000e-06	-3.948461e-08	-1.572704e-10	-2.134798e-01	-4.614342e+01
1.830000e-06	2.140398e-08	-1.455284e-10	1.157240e-01	-4.231483e+01
1.840000e-06	8.219105e-08	-1.319733e-10	4.443790e-01	-3.844742e+01
1.850000e-06	1.431297e-07	-1.179464e-10	7.738536e-01	-3.454271e+01
1.860000e-06	2.040313e-07	-1.037785e-10	1.103128e+00	-3.060246e+01
1.870000e-06	2.648799e-07	-8.882875e-11	1.432115e+00	-2.662865e+01
1.880000e-06	3.257972e-07	-7.428481e-11	1.761474e+00	-2.262346e+01
1.890000e-06	3.866514e-07	-6.141478e-11	2.090492e+00	-1.858927e+01
1.900000e-06	4.474159e-07	-4.913820e-11	2.419025e+00	-1.452868e+01
1.910000e-06	5.082133e-07	-3.628035e-11	2.747736e+00	-1.044441e+01
1.920000e-06	5.690192e-07	-2.210839e-11	3.076493e+00	-6.339361e+00
1.930000e-06	6.297716e-07	-6.506748e-12	3.404960e+00	-2.216570e+00
1.940000e-06	6.904526e-07	8.972596e-12	3.733041e+00	1.920826e+00
1.950000e-06	7.510297e-07	2.369167e-11	4.060561e+00	6.069598e+00
1.960000e-06	8.115927e-07	3.784514e-11	4.388005e+00	1.022645e+01
1.970000e-06	8.720786e-07	5.155516e-11	4.715031e+00	1.438804e+01
1.980000e-06	9.324522e-07	6.605407e-11	5.041451e+00	1.855100e+01
1.990000e-06	9.927544e-07	8.052416e-11	5.367484e+00	2.271197e+01
2.000000e-06	1.052957e-06	9.357450e-11	5.692978e+00	2.686762e+01
2.010000e-06	1.113145e-06	1.068873e-10	6.018396e+00	3.101464e+01
2.020000e-06	1.173362e-06	1.204152e-10	6.343967e+00	3.514980e+01
2.030000e-06	1.233412e-06	1.336514e-10	6.668640e+00	3.926994e+01
2.040000e-06	1.293314e-06	1.477754e-10	6.992508e+00	4.337201e+01
2.050000e-06	1.353210e-06	1.636423e-10	7.316346e+00	4.745306e+01
2.060000e-06	1.413075e-06	1.799263e-10	7.640014e+00	5.151027e+01
2.070000e-06	1.472897e-06	1.942947e-10	7.963452e+00	5.554095e+01
2.080000e-06	1.532639e-06	2.077613e-10	8.286458e+00	5.954257e+01
2.090000e-06	1.592273e-06	2.221359e-10	8.608877e+00	6.351275e+01
2.100000e-06	1.651849e-06	2.362218e-10	8.930985e+00	6.744927e+01
2.110000e-06	1.711410e-06	2.487402e-10	9.253010e+00	7.135007e+01
2.120000e-06	1.770901e-06	2.619490e-10	9.574655e+00	7.521327e+01
2.130000e-06	1.830313e-06	2.763372e-10	9.895878e+00	7.903715e+01
2.140000e-06	1.889658e-06	2.910217e-10	1.021673e+01	8.282019e+01
2.150000e-06	1.948928e-06	3.057956e-10	1.053719e+01	8.656100e+01
2.160000e-06	2.008061e-06	3.192423e-10	1.085690e+01	9.025840e+01
2.170000e-06	2.066951e-06	3.321700e-10	1.117530e+01	9.391134e+01
2.180000e-06	2.125688e-06	3.460169e-10	1.149287e+01	9.751897e+01
2.190000e-06	2.184115e-06	3.599426e-10	1.180876e+01	1.010806e+02
2.200000e-06	2.242201e-06	3.734585e-10	1.212282e+01	1.045957e+02
2.210000e-06	2.300088e-06	3.862008e-10	1.243579e+01	1.080638e+02
2.220000e-06	2.357745e-06	3.985076e-10	1.274752e+01	1.114847e+02
2.230000e-06	2.415156e-06	4.107837e-10	1.305792e+01	1.148583e+02
2.240000e-06	2.472073e-06	4.231002e-10	1.336565e+01	1.181847e+02
2.250000e-06	2.528578e-06	4.358113e-10	1.367116e+01	1.214640e+02
2.260000e-06	2.584911e-06	4.487288e-10	1.397573e+01	1.246966e+02
2.270000e-06	2.641131e-06	4.619881e-10	1.427969e+01	1.278828e+02
2.280000e-06	2.697205e-06	4.749920e-10	1.458287e+01	1.310232e+02
2.290000e-06	2.753033e-06	4.865071e-10	1.488471e+01	1.341185e+02
2.300000e-06	2.808772e-06	4.965754e-10	1.518607e+01	1.371695e+02
2.310000e-06	2.864431e-06	5.066518e-10	1.548700e+01	1.401769e+02
2.320000e-06	2.919990e-06	5.181025e-10	1.578739e+01	1.431418e+02
2.330000e-06	2.975390e-06	5.292606e-10	1.608692e+01	1.460651e+02
2.340000e-06	3.030427e-06	5.396872e-10	1.638449e+01	1.489480e+02
2.350000e-06	3.085363e-06	5.510380e-10	1.668151e+01	1.517916e+02
2.360000e-06	3.140182e-06	5.620419e-10	1.697789e+01	1.545972e+02
2.370000e-06	3.194898e-06	5.718462e-10	1.727372e+01	1.573660e+02
2.380000e-06	3.249493e-06	5.817695e-10	1.756890e+01	1.600992e+02
2.390000e-06	3.303754e-06	5.922848e-10	1.786227e+01	1.627983e+02
2.400000e-06	3.357761e-06	6.022955e-10	1.815427e+01	1.654645e+02
2.410000e-06	3.411447e-06	6.111029e-10	1.844453e+01	1.680990e+02
2.420000e-06	3.464827e-06	6.204141e-10	1.873314e+01	1.707033e+02
2.430000e-06	3.517967e-06	6.306434e-10	1.902045e+01	1.732785e+02
2.440000e-06	3.570930e-06	6.395878e-10	1.930680e+01	1.758257e+02
2.450000e-06	3.623767e-06	6.479933e-10	1.959247e+01	1.783463e+02
2.460000e-06	3.676254e-06	6.572075e-10	1.987625e+01	1.808410e+02
2.470000e-06	3.728405e-06	6.656549e-10	2.015821e+01	1.833111e+02
2.480000e-06	3.780352e-06	6.734073e-10	2.043907e+01	1.857571e+02
2.490000e-06	3.831968e-06	6.814238e-10	2.071814e+01	1.881800e+02
2.500000e-06	3.883314e-06	6.895192e-10	2.099575e+01	1.905803e+02
2.510000e-06	3.934386e-06	6.974397e-10	2.127188e+01	1.929585e+02
2.520000e-06	3.985082e-06	7.057013e-10	2.154598e+01	1.953148e+02
2.530000e-06	4.035289e-06	7.141237e-10	2.181743e+01	1.976495e+02
2.540000e-06	4.084953e-06	7.223810e-10	2.208594e+01	1.999627e+02
2.550000e-06	4.134120e-06	7.309310e-10	2.235178e+01	2.022541e+02
2.560000e-06	4.182796e-06	7.386391e-10	2.261495e+01	2.045236e+02
2.570000e-06	4.231108e-06	7.458450e-10	2.287616e+01	2.067706e+02
2.580000e-06	4.279124e-06	7.541869e-10	2.313577e+01	2.089948e+02
2.590000e-06	4.326862e-06	7.632351e-10	2.339387e+01	2.111953e+02
2.600000e-06	4.374426e-06	7.716109e-10	2.365103e+01	2.133713e+02
2.610000e-06	4.421710e-06	7.788692e-10	2.390668e+01	2.155221e+02
2.620000e-06	4.468621e-06	7.866388e-10	2.416031e+01	2.176465e+02
2.630000e-06	4.515254e-06	7.947459e-10	2.441244e+01	2.197435e+02
2.640000e-06	4.561552e-06	8.024673e-10	2.466275e+01	2.218119e+02
2.650000e-06	4.607407e-06	8.095686e-10	2.491068e+01	2.238506e+02
2.660000e-06	4.652845e-06	8.152418e-10	2.515634e+01	2.258584e+02
2.670000e-06	4.698111e-06	8.207920e-10	2.540109e+01	2.278340e+02
2.680000e-06	4.743229e-06	8.272271e-10	2.564502e+01	2.297764e+02
2.690000e-06	4.787993e-06	8.351046e-10	2.588704e+01	2.316844e+02
2.700000e-06	4.832404e-06	8.430878e-10	2.612716e+01	2.335569e+02
2.710000e-06	4.876560e-06	8.498596e-10	2.636590e+01	2.353929e+02
2.720000e-06	4.920555e-06	8.567781e-10	2.660376e+01	2.371916e+02
2.730000e-06	4.964321e-06	8.636636e-10	2.684039e+01	2.389522e+02
2.740000e-06	5.007782e-06	8.694662e-10	2.707537e+01	2.406742e+02
2.750000e-06	5.050806e-06	8.755694e-10	2.730798e+01	2.423569e+02
2.760000e-06	5.093321e-06	8.823841e-10	2.753785e+01	2.440001e+02
2.770000e-06	5.135325e-06	8.892963e-10	2.776495e+01	2.456036e+02
2.780000e-06	5.176815e-06	8.958883e-10	2.798927e+01	2.471676e+02
2.790000e-06	5.217876e-06	9.020812e-10	2.821127e+01	2.486920e+02
2.800000e-06	5.258454e-06	9.079561e-10	2.843067e+01	2.501774e+02
2.810000e-06	5.298533e-06	9.134778e-10	2.864736e+01	2.516243e+02
2.820000e-06	5.338284e-06	9.197578e-10	2.886228e+01	2.530333e+02
2.830000e-06	5.377811e-06	9.261973e-10	2.907599e+01	2.544054e+02
2.840000e-06	5.417017e-06	9.321027e-10	2.928796e+01	2.557416e+02
2.850000e-06	5.455919e-06	9.384393e-10	2.949829e+01	2.570431e+02
2.860000e-06	5.494486e-06	9.450523e-10	2.970681e+01	2.583111e+02
2.870000e-06	5.532505e-06	9.508444e-10	2.991237e+01	2.595470e+02
2.880000e-06	5.570011e-06	9.562524e-10	3.011515e+01	2.607524e+02
2.890000e-06	5.607136e-06	9.614888e-10	3.031587e+01	2.619287e+02
2.900000e-06	5.643913e-06	9.664648e-10	3.051471e+01	2.630778e+02
