# Temperatura_=_19.6
# Concentracion g/m^3_=_7400.0
# C_Vs_to_Am_M_A/Vsm_=_254322799225.57578
# pendiente_HvsI_1/m_=_3716.3
# ordenada_HvsI_A/m_=_1297.0
# frecuencia_Hz_=_136127.5905341382

Tiempo_(s)	Campo_(V.s)	Magnetizacion_(V.s)	Campo_(kA/m)	Magnetizacion_(A/m)
0.000000e+00	-7.106701e-06	-1.577947e-09	-3.841387e+01	-3.955684e+02
1.000000e-08	-7.106925e-06	-1.578082e-09	-3.841508e+01	-3.955354e+02
2.000000e-08	-7.106725e-06	-1.576785e-09	-3.841400e+01	-3.954834e+02
3.000000e-08	-7.105862e-06	-1.575099e-09	-3.840934e+01	-3.954139e+02
4.000000e-08	-7.104240e-06	-1.574183e-09	-3.840056e+01	-3.953284e+02
5.000000e-08	-7.101831e-06	-1.572631e-09	-3.838754e+01	-3.952285e+02
6.000000e-08	-7.098777e-06	-1.568620e-09	-3.837104e+01	-3.951160e+02
7.000000e-08	-7.095314e-06	-1.567958e-09	-3.835232e+01	-3.949926e+02
8.000000e-08	-7.091373e-06	-1.577511e-09	-3.833101e+01	-3.948599e+02
9.000000e-08	-7.086793e-06	-1.571523e-09	-3.830626e+01	-3.947196e+02
1.000000e-07	-7.081493e-06	-1.529036e-09	-3.827761e+01	-3.945732e+02
1.100000e-07	-7.075598e-06	-1.526449e-09	-3.824575e+01	-3.944222e+02
1.200000e-07	-7.069401e-06	-1.591200e-09	-3.821225e+01	-3.942678e+02
1.300000e-07	-7.063074e-06	-1.602587e-09	-3.817805e+01	-3.941113e+02
1.400000e-07	-7.056355e-06	-1.520972e-09	-3.814173e+01	-3.939536e+02
1.500000e-07	-7.049035e-06	-1.504785e-09	-3.810217e+01	-3.937954e+02
1.600000e-07	-7.041319e-06	-1.601495e-09	-3.806046e+01	-3.936375e+02
1.700000e-07	-7.033330e-06	-1.604120e-09	-3.801728e+01	-3.934801e+02
1.800000e-07	-7.024753e-06	-1.486608e-09	-3.797091e+01	-3.933235e+02
1.900000e-07	-7.015247e-06	-1.487183e-09	-3.791953e+01	-3.931675e+02
2.000000e-07	-7.005080e-06	-1.613711e-09	-3.786458e+01	-3.930119e+02
2.100000e-07	-6.994528e-06	-1.601579e-09	-3.780754e+01	-3.928562e+02
2.200000e-07	-6.983246e-06	-1.479652e-09	-3.774656e+01	-3.926997e+02
2.300000e-07	-6.971338e-06	-1.497613e-09	-3.768219e+01	-3.925415e+02
2.400000e-07	-6.959045e-06	-1.592112e-09	-3.761574e+01	-3.923807e+02
2.500000e-07	-6.946319e-06	-1.545341e-09	-3.754695e+01	-3.922161e+02
2.600000e-07	-6.932903e-06	-1.476360e-09	-3.747444e+01	-3.920464e+02
2.700000e-07	-6.918671e-06	-1.540900e-09	-3.739751e+01	-3.918702e+02
2.800000e-07	-6.903651e-06	-1.573728e-09	-3.731632e+01	-3.916862e+02
2.900000e-07	-6.887917e-06	-1.501530e-09	-3.723128e+01	-3.914928e+02
3.000000e-07	-6.871650e-06	-1.503731e-09	-3.714334e+01	-3.912887e+02
3.100000e-07	-6.854976e-06	-1.563110e-09	-3.705322e+01	-3.910723e+02
3.200000e-07	-6.837931e-06	-1.508440e-09	-3.696108e+01	-3.908422e+02
3.300000e-07	-6.820452e-06	-1.467947e-09	-3.686661e+01	-3.905972e+02
3.400000e-07	-6.802640e-06	-1.554797e-09	-3.677033e+01	-3.903360e+02
3.500000e-07	-6.784459e-06	-1.568280e-09	-3.667205e+01	-3.900576e+02
3.600000e-07	-6.765670e-06	-1.466174e-09	-3.657049e+01	-3.897608e+02
3.700000e-07	-6.746308e-06	-1.481165e-09	-3.646584e+01	-3.894448e+02
3.800000e-07	-6.726624e-06	-1.561156e-09	-3.635944e+01	-3.891090e+02
3.900000e-07	-6.706543e-06	-1.509274e-09	-3.625089e+01	-3.887529e+02
4.000000e-07	-6.685998e-06	-1.455841e-09	-3.613984e+01	-3.883759e+02
4.100000e-07	-6.664974e-06	-1.519800e-09	-3.602620e+01	-3.879780e+02
4.200000e-07	-6.643464e-06	-1.530304e-09	-3.590993e+01	-3.875590e+02
4.300000e-07	-6.621428e-06	-1.471440e-09	-3.579082e+01	-3.871191e+02
4.400000e-07	-6.598812e-06	-1.493901e-09	-3.566858e+01	-3.866584e+02
4.500000e-07	-6.575803e-06	-1.521632e-09	-3.554420e+01	-3.861773e+02
4.600000e-07	-6.552525e-06	-1.470292e-09	-3.541838e+01	-3.856762e+02
4.700000e-07	-6.528955e-06	-1.469501e-09	-3.529098e+01	-3.851558e+02
4.800000e-07	-6.505044e-06	-1.519560e-09	-3.516173e+01	-3.846165e+02
4.900000e-07	-6.480616e-06	-1.489349e-09	-3.502969e+01	-3.840590e+02
5.000000e-07	-6.455499e-06	-1.450292e-09	-3.489393e+01	-3.834840e+02
5.100000e-07	-6.429687e-06	-1.484334e-09	-3.475440e+01	-3.828923e+02
5.200000e-07	-6.403228e-06	-1.490254e-09	-3.461139e+01	-3.822845e+02
5.300000e-07	-6.376192e-06	-1.453819e-09	-3.446525e+01	-3.816613e+02
5.400000e-07	-6.348765e-06	-1.464940e-09	-3.431700e+01	-3.810233e+02
5.500000e-07	-6.321010e-06	-1.481042e-09	-3.416697e+01	-3.803710e+02
5.600000e-07	-6.292845e-06	-1.455953e-09	-3.401473e+01	-3.797050e+02
5.700000e-07	-6.264185e-06	-1.451115e-09	-3.385981e+01	-3.790256e+02
5.800000e-07	-6.235058e-06	-1.467742e-09	-3.370238e+01	-3.783332e+02
5.900000e-07	-6.205597e-06	-1.454122e-09	-3.354313e+01	-3.776279e+02
6.000000e-07	-6.175904e-06	-1.440589e-09	-3.338263e+01	-3.769099e+02
6.100000e-07	-6.145728e-06	-1.451068e-09	-3.321952e+01	-3.761792e+02
6.200000e-07	-6.114886e-06	-1.450311e-09	-3.305281e+01	-3.754357e+02
6.300000e-07	-6.083658e-06	-1.437812e-09	-3.288401e+01	-3.746792e+02
6.400000e-07	-6.052185e-06	-1.437265e-09	-3.271389e+01	-3.739094e+02
6.500000e-07	-6.020478e-06	-1.435916e-09	-3.254250e+01	-3.731260e+02
6.600000e-07	-5.988414e-06	-1.427186e-09	-3.236919e+01	-3.723286e+02
6.700000e-07	-5.955842e-06	-1.425009e-09	-3.219313e+01	-3.715166e+02
6.800000e-07	-5.922555e-06	-1.426238e-09	-3.201320e+01	-3.706896e+02
6.900000e-07	-5.888383e-06	-1.420147e-09	-3.182849e+01	-3.698469e+02
7.000000e-07	-5.853576e-06	-1.411540e-09	-3.164035e+01	-3.689880e+02
7.100000e-07	-5.818400e-06	-1.407140e-09	-3.145021e+01	-3.681123e+02
7.200000e-07	-5.782985e-06	-1.405113e-09	-3.125878e+01	-3.672192e+02
7.300000e-07	-5.747415e-06	-1.401228e-09	-3.106651e+01	-3.663081e+02
7.400000e-07	-5.711588e-06	-1.395737e-09	-3.087286e+01	-3.653785e+02
7.500000e-07	-5.675310e-06	-1.392162e-09	-3.067676e+01	-3.644298e+02
7.600000e-07	-5.638557e-06	-1.390650e-09	-3.047810e+01	-3.634615e+02
7.700000e-07	-5.601392e-06	-1.387998e-09	-3.027722e+01	-3.624733e+02
7.800000e-07	-5.563828e-06	-1.381334e-09	-3.007417e+01	-3.614648e+02
7.900000e-07	-5.525833e-06	-1.373177e-09	-2.986880e+01	-3.604357e+02
8.000000e-07	-5.487330e-06	-1.367162e-09	-2.966068e+01	-3.593856e+02
8.100000e-07	-5.448458e-06	-1.363967e-09	-2.945056e+01	-3.583145e+02
8.200000e-07	-5.409257e-06	-1.360553e-09	-2.923867e+01	-3.572222e+02
8.300000e-07	-5.369860e-06	-1.354972e-09	-2.902572e+01	-3.561086e+02
8.400000e-07	-5.330297e-06	-1.347000e-09	-2.881187e+01	-3.549736e+02
8.500000e-07	-5.290376e-06	-1.340332e-09	-2.859608e+01	-3.538174e+02
8.600000e-07	-5.250034e-06	-1.335539e-09	-2.837802e+01	-3.526398e+02
8.700000e-07	-5.209201e-06	-1.329910e-09	-2.815731e+01	-3.514410e+02
8.800000e-07	-5.167827e-06	-1.322805e-09	-2.793366e+01	-3.502211e+02
8.900000e-07	-5.125975e-06	-1.316306e-09	-2.770744e+01	-3.489802e+02
9.000000e-07	-5.083557e-06	-1.310658e-09	-2.747816e+01	-3.477183e+02
9.100000e-07	-5.040555e-06	-1.306511e-09	-2.724573e+01	-3.464357e+02
9.200000e-07	-4.997224e-06	-1.301984e-09	-2.701151e+01	-3.451322e+02
9.300000e-07	-4.953683e-06	-1.294353e-09	-2.677615e+01	-3.438081e+02
9.400000e-07	-4.909888e-06	-1.286445e-09	-2.653943e+01	-3.424633e+02
9.500000e-07	-4.865791e-06	-1.280465e-09	-2.630107e+01	-3.410978e+02
9.600000e-07	-4.821473e-06	-1.275317e-09	-2.606152e+01	-3.397116e+02
9.700000e-07	-4.776799e-06	-1.269466e-09	-2.582004e+01	-3.383047e+02
9.800000e-07	-4.731587e-06	-1.262120e-09	-2.557566e+01	-3.368769e+02
9.900000e-07	-4.685904e-06	-1.254560e-09	-2.532873e+01	-3.354281e+02
1.000000e-06	-4.639989e-06	-1.247743e-09	-2.508055e+01	-3.339581e+02
1.010000e-06	-4.593886e-06	-1.241964e-09	-2.483135e+01	-3.324665e+02
1.020000e-06	-4.547471e-06	-1.235906e-09	-2.458046e+01	-3.309533e+02
1.030000e-06	-4.500666e-06	-1.228902e-09	-2.432746e+01	-3.294180e+02
1.040000e-06	-4.453520e-06	-1.222868e-09	-2.407262e+01	-3.278602e+02
1.050000e-06	-4.406116e-06	-1.217850e-09	-2.381639e+01	-3.262797e+02
1.060000e-06	-4.358483e-06	-1.212468e-09	-2.355892e+01	-3.246760e+02
1.070000e-06	-4.310680e-06	-1.205385e-09	-2.330053e+01	-3.230487e+02
1.080000e-06	-4.262658e-06	-1.196952e-09	-2.304095e+01	-3.213973e+02
1.090000e-06	-4.214253e-06	-1.188849e-09	-2.277931e+01	-3.197214e+02
1.100000e-06	-4.165399e-06	-1.182873e-09	-2.251524e+01	-3.180206e+02
1.110000e-06	-4.115972e-06	-1.177397e-09	-2.224807e+01	-3.162943e+02
1.120000e-06	-4.066055e-06	-1.170194e-09	-2.197826e+01	-3.145420e+02
1.130000e-06	-4.015687e-06	-1.161423e-09	-2.170600e+01	-3.127634e+02
1.140000e-06	-3.964799e-06	-1.153122e-09	-2.143094e+01	-3.109580e+02
1.150000e-06	-3.913516e-06	-1.146371e-09	-2.115374e+01	-3.091252e+02
1.160000e-06	-3.862033e-06	-1.140055e-09	-2.087545e+01	-3.072647e+02
1.170000e-06	-3.810346e-06	-1.132658e-09	-2.059607e+01	-3.053759e+02
1.180000e-06	-3.758413e-06	-1.124683e-09	-2.031536e+01	-3.034586e+02
1.190000e-06	-3.706296e-06	-1.117278e-09	-2.003365e+01	-3.015122e+02
1.200000e-06	-3.653845e-06	-1.110384e-09	-1.975013e+01	-2.995363e+02
1.210000e-06	-3.601045e-06	-1.102957e-09	-1.946474e+01	-2.975306e+02
1.220000e-06	-3.547900e-06	-1.094814e-09	-1.917747e+01	-2.954946e+02
1.230000e-06	-3.494478e-06	-1.086339e-09	-1.888871e+01	-2.934281e+02
1.240000e-06	-3.440826e-06	-1.078095e-09	-1.859870e+01	-2.913305e+02
1.250000e-06	-3.386978e-06	-1.070166e-09	-1.830764e+01	-2.892017e+02
1.260000e-06	-3.332927e-06	-1.061628e-09	-1.801548e+01	-2.870413e+02
1.270000e-06	-3.278629e-06	-1.052033e-09	-1.772198e+01	-2.848489e+02
1.280000e-06	-3.224021e-06	-1.043167e-09	-1.742681e+01	-2.826242e+02
1.290000e-06	-3.169143e-06	-1.036541e-09	-1.713017e+01	-2.803670e+02
1.300000e-06	-3.114117e-06	-1.029604e-09	-1.683275e+01	-2.780770e+02
1.310000e-06	-3.058894e-06	-1.020871e-09	-1.653425e+01	-2.757539e+02
1.320000e-06	-3.003509e-06	-1.010649e-09	-1.623487e+01	-2.733975e+02
1.330000e-06	-2.948024e-06	-9.995198e-10	-1.593496e+01	-2.710075e+02
1.340000e-06	-2.892430e-06	-9.901861e-10	-1.563446e+01	-2.685838e+02
1.350000e-06	-2.836740e-06	-9.827315e-10	-1.533344e+01	-2.661261e+02
1.360000e-06	-2.780954e-06	-9.734779e-10	-1.503190e+01	-2.636342e+02
1.370000e-06	-2.725030e-06	-9.626813e-10	-1.472961e+01	-2.611081e+02
1.380000e-06	-2.668982e-06	-9.535851e-10	-1.442665e+01	-2.585474e+02
1.390000e-06	-2.612756e-06	-9.452754e-10	-1.412274e+01	-2.559520e+02
1.400000e-06	-2.556287e-06	-9.352272e-10	-1.381750e+01	-2.533218e+02
1.410000e-06	-2.499445e-06	-9.241671e-10	-1.351025e+01	-2.506565e+02
1.420000e-06	-2.442369e-06	-9.131714e-10	-1.320174e+01	-2.479559e+02
1.430000e-06	-2.385171e-06	-9.029159e-10	-1.289257e+01	-2.452198e+02
1.440000e-06	-2.327626e-06	-8.936096e-10	-1.258152e+01	-2.424478e+02
1.450000e-06	-2.269801e-06	-8.840192e-10	-1.226896e+01	-2.396396e+02
1.460000e-06	-2.211681e-06	-8.728975e-10	-1.195481e+01	-2.367947e+02
1.470000e-06	-2.153162e-06	-8.609046e-10	-1.163849e+01	-2.339127e+02
1.480000e-06	-2.094261e-06	-8.504637e-10	-1.132012e+01	-2.309928e+02
1.490000e-06	-2.035156e-06	-8.398161e-10	-1.100063e+01	-2.280344e+02
1.500000e-06	-1.975881e-06	-8.265550e-10	-1.068023e+01	-2.250366e+02
1.510000e-06	-1.916425e-06	-8.134866e-10	-1.035886e+01	-2.219982e+02
1.520000e-06	-1.857022e-06	-8.020209e-10	-1.003776e+01	-2.189182e+02
1.530000e-06	-1.797671e-06	-7.907747e-10	-9.716958e+00	-2.157951e+02
1.540000e-06	-1.738272e-06	-7.781408e-10	-9.395884e+00	-2.126274e+02
1.550000e-06	-1.678780e-06	-7.651032e-10	-9.074314e+00	-2.094133e+02
1.560000e-06	-1.619203e-06	-7.525127e-10	-8.752280e+00	-2.061508e+02
1.570000e-06	-1.559586e-06	-7.395640e-10	-8.430036e+00	-2.028378e+02
1.580000e-06	-1.499893e-06	-7.268008e-10	-8.107373e+00	-1.994719e+02
1.590000e-06	-1.440118e-06	-7.136620e-10	-7.784273e+00	-1.960504e+02
1.600000e-06	-1.380326e-06	-7.001301e-10	-7.461079e+00	-1.925707e+02
1.610000e-06	-1.320485e-06	-6.873881e-10	-7.137618e+00	-1.890297e+02
1.620000e-06	-1.260473e-06	-6.750231e-10	-6.813237e+00	-1.854243e+02
1.630000e-06	-1.200325e-06	-6.615337e-10	-6.488122e+00	-1.817513e+02
1.640000e-06	-1.140100e-06	-6.468462e-10	-6.162588e+00	-1.780074e+02
1.650000e-06	-1.079820e-06	-6.324869e-10	-5.836753e+00	-1.741890e+02
1.660000e-06	-1.019532e-06	-6.187819e-10	-5.510876e+00	-1.702927e+02
1.670000e-06	-9.590852e-07	-6.042348e-10	-5.184145e+00	-1.663151e+02
1.680000e-06	-8.985844e-07	-5.893113e-10	-4.857120e+00	-1.622526e+02
1.690000e-06	-8.379913e-07	-5.743037e-10	-4.529596e+00	-1.581020e+02
1.700000e-06	-7.771657e-07	-5.585066e-10	-4.200816e+00	-1.538601e+02
1.710000e-06	-7.163012e-07	-5.424943e-10	-3.871824e+00	-1.495239e+02
1.720000e-06	-6.554319e-07	-5.273635e-10	-3.542807e+00	-1.450906e+02
1.730000e-06	-5.945251e-07	-5.120234e-10	-3.213588e+00	-1.405578e+02
1.740000e-06	-5.336377e-07	-4.953748e-10	-2.884473e+00	-1.359235e+02
1.750000e-06	-4.727621e-07	-4.780239e-10	-2.555422e+00	-1.311861e+02
1.760000e-06	-4.117732e-07	-4.596272e-10	-2.225759e+00	-1.263442e+02
1.770000e-06	-3.507839e-07	-4.408128e-10	-1.896093e+00	-1.213972e+02
1.780000e-06	-2.898801e-07	-4.218278e-10	-1.566890e+00	-1.163451e+02
1.790000e-06	-2.288892e-07	-4.022037e-10	-1.237216e+00	-1.111882e+02
1.800000e-06	-1.678619e-07	-3.836385e-10	-9.073442e-01	-1.059277e+02
1.810000e-06	-1.068124e-07	-3.661870e-10	-5.773536e-01	-1.005652e+02
1.820000e-06	-4.583131e-08	-3.477887e-10	-2.477321e-01	-9.510307e+01
1.830000e-06	1.507823e-08	-3.279064e-10	8.150239e-02	-8.954440e+01
1.840000e-06	7.615127e-08	-3.072121e-10	4.116206e-01	-8.389284e+01
1.850000e-06	1.372454e-07	-2.861854e-10	7.418526e-01	-7.815275e+01
1.860000e-06	1.982507e-07	-2.638103e-10	1.071605e+00	-7.232909e+01
1.870000e-06	2.592262e-07	-2.406855e-10	1.401196e+00	-6.642746e+01
1.880000e-06	3.201973e-07	-2.179278e-10	1.730763e+00	-6.045400e+01
1.890000e-06	3.811570e-07	-1.964808e-10	2.060269e+00	-5.441541e+01
1.900000e-06	4.420970e-07	-1.746762e-10	2.389668e+00	-4.831883e+01
1.910000e-06	5.029996e-07	-1.510929e-10	2.718865e+00	-4.217186e+01
1.920000e-06	5.638493e-07	-1.274731e-10	3.047776e+00	-3.598241e+01
1.930000e-06	6.246119e-07	-1.038117e-10	3.376216e+00	-2.975871e+01
1.940000e-06	6.853132e-07	-8.029080e-11	3.704325e+00	-2.350917e+01
1.950000e-06	7.460398e-07	-5.622483e-11	4.032571e+00	-1.724236e+01
1.960000e-06	8.067017e-07	-3.126253e-11	4.360467e+00	-1.096686e+01
1.970000e-06	8.672925e-07	-7.151208e-12	4.687978e+00	-4.691259e+00
1.980000e-06	9.278663e-07	1.603070e-11	5.015398e+00	1.575984e+00
1.990000e-06	9.883374e-07	3.911072e-11	5.342263e+00	7.826595e+00
2.000000e-06	1.048739e-06	6.155033e-11	5.668754e+00	1.405256e+01
2.010000e-06	1.109144e-06	8.364275e-11	5.995256e+00	2.024622e+01
2.020000e-06	1.169500e-06	1.065187e-10	6.321501e+00	2.640029e+01
2.030000e-06	1.229691e-06	1.295980e-10	6.646849e+00	3.250797e+01
2.040000e-06	1.289684e-06	1.529698e-10	6.971130e+00	3.856296e+01
2.050000e-06	1.349638e-06	1.766626e-10	7.295202e+00	4.455954e+01
2.060000e-06	1.409577e-06	1.993241e-10	7.619190e+00	5.049258e+01
2.070000e-06	1.469409e-06	2.202651e-10	7.942600e+00	5.635757e+01
2.080000e-06	1.529140e-06	2.397032e-10	8.265462e+00	6.215066e+01
2.090000e-06	1.588735e-06	2.593159e-10	8.587591e+00	6.786863e+01
2.100000e-06	1.648197e-06	2.795717e-10	8.909003e+00	7.350893e+01
2.110000e-06	1.707637e-06	2.999923e-10	9.230297e+00	7.906966e+01
2.120000e-06	1.767062e-06	3.214063e-10	9.551502e+00	8.454954e+01
2.130000e-06	1.826383e-06	3.423345e-10	9.872152e+00	8.994786e+01
2.140000e-06	1.885617e-06	3.615883e-10	1.019233e+01	9.526453e+01
2.150000e-06	1.944726e-06	3.809999e-10	1.051183e+01	1.004999e+02
2.160000e-06	2.003738e-06	4.005460e-10	1.083081e+01	1.056549e+02
2.170000e-06	2.062580e-06	4.192106e-10	1.114887e+01	1.107309e+02
2.180000e-06	2.121286e-06	4.376668e-10	1.146619e+01	1.157294e+02
2.190000e-06	2.179835e-06	4.564511e-10	1.178267e+01	1.206524e+02
2.200000e-06	2.238073e-06	4.746219e-10	1.209746e+01	1.255022e+02
2.210000e-06	2.296092e-06	4.917264e-10	1.241107e+01	1.302812e+02
2.220000e-06	2.353886e-06	5.084572e-10	1.272347e+01	1.349919e+02
2.230000e-06	2.411253e-06	5.246608e-10	1.303355e+01	1.396370e+02
2.240000e-06	2.468124e-06	5.413062e-10	1.334096e+01	1.442189e+02
2.250000e-06	2.524639e-06	5.592439e-10	1.364644e+01	1.487403e+02
2.260000e-06	2.581046e-06	5.765253e-10	1.395134e+01	1.532037e+02
2.270000e-06	2.637296e-06	5.928624e-10	1.425538e+01	1.576114e+02
2.280000e-06	2.693327e-06	6.093623e-10	1.455825e+01	1.619656e+02
2.290000e-06	2.749321e-06	6.253696e-10	1.486091e+01	1.662683e+02
2.300000e-06	2.805223e-06	6.405999e-10	1.516308e+01	1.705212e+02
2.310000e-06	2.860839e-06	6.553364e-10	1.546370e+01	1.747258e+02
2.320000e-06	2.916211e-06	6.697505e-10	1.576300e+01	1.788834e+02
2.330000e-06	2.971502e-06	6.840126e-10	1.606187e+01	1.829950e+02
2.340000e-06	3.026719e-06	6.982989e-10	1.636033e+01	1.870613e+02
2.350000e-06	3.081834e-06	7.133976e-10	1.665824e+01	1.910830e+02
2.360000e-06	3.136759e-06	7.288985e-10	1.695513e+01	1.950601e+02
2.370000e-06	3.191436e-06	7.436293e-10	1.725067e+01	1.989928e+02
2.380000e-06	3.245839e-06	7.573070e-10	1.754474e+01	2.028809e+02
2.390000e-06	3.300018e-06	7.707074e-10	1.783760e+01	2.067241e+02
2.400000e-06	3.353953e-06	7.846628e-10	1.812913e+01	2.105220e+02
2.410000e-06	3.407665e-06	7.977216e-10	1.841946e+01	2.142740e+02
2.420000e-06	3.461158e-06	8.095055e-10	1.870861e+01	2.179793e+02
2.430000e-06	3.514471e-06	8.227881e-10	1.899678e+01	2.216375e+02
2.440000e-06	3.567508e-06	8.372129e-10	1.928346e+01	2.252475e+02
2.450000e-06	3.620138e-06	8.507476e-10	1.956794e+01	2.288089e+02
2.460000e-06	3.672503e-06	8.630343e-10	1.985099e+01	2.323207e+02
2.470000e-06	3.724593e-06	8.743319e-10	2.013255e+01	2.357825e+02
2.480000e-06	3.776429e-06	8.856389e-10	2.041274e+01	2.391935e+02
2.490000e-06	3.828060e-06	8.973548e-10	2.069182e+01	2.425533e+02
2.500000e-06	3.879432e-06	9.092737e-10	2.096950e+01	2.458615e+02
2.510000e-06	3.930424e-06	9.212950e-10	2.124513e+01	2.491178e+02
2.520000e-06	3.980972e-06	9.330430e-10	2.151836e+01	2.523220e+02
2.530000e-06	4.031126e-06	9.448927e-10	2.178946e+01	2.554740e+02
2.540000e-06	4.080787e-06	9.572428e-10	2.205789e+01	2.585739e+02
2.550000e-06	4.130045e-06	9.686555e-10	2.232414e+01	2.616218e+02
2.560000e-06	4.178908e-06	9.787637e-10	2.258826e+01	2.646179e+02
2.570000e-06	4.227266e-06	9.889206e-10	2.284965e+01	2.675626e+02
2.580000e-06	4.275314e-06	9.996786e-10	2.310937e+01	2.704563e+02
2.590000e-06	4.323111e-06	1.010548e-09	2.336772e+01	2.732994e+02
2.600000e-06	4.370627e-06	1.020720e-09	2.362456e+01	2.760924e+02
2.610000e-06	4.417991e-06	1.030446e-09	2.388058e+01	2.788359e+02
2.620000e-06	4.465102e-06	1.041164e-09	2.413523e+01	2.815304e+02
2.630000e-06	4.511878e-06	1.052662e-09	2.438807e+01	2.841764e+02
2.640000e-06	4.558283e-06	1.062842e-09	2.463890e+01	2.867745e+02
2.650000e-06	4.604396e-06	1.071580e-09	2.488815e+01	2.893251e+02
2.660000e-06	4.650198e-06	1.080027e-09	2.513573e+01	2.918288e+02
2.670000e-06	4.695634e-06	1.088379e-09	2.538132e+01	2.942859e+02
2.680000e-06	4.740744e-06	1.097142e-09	2.562515e+01	2.966968e+02
2.690000e-06	4.785442e-06	1.106164e-09	2.586676e+01	2.990618e+02
2.700000e-06	4.829890e-06	1.115544e-09	2.610702e+01	3.013812e+02
2.710000e-06	4.874171e-06	1.124799e-09	2.634637e+01	3.036553e+02
2.720000e-06	4.918152e-06	1.133392e-09	2.658410e+01	3.058842e+02
2.730000e-06	4.961830e-06	1.141632e-09	2.682019e+01	3.080681e+02
2.740000e-06	5.005329e-06	1.149427e-09	2.705532e+01	3.102072e+02
2.750000e-06	5.048566e-06	1.156899e-09	2.728902e+01	3.123016e+02
2.760000e-06	5.091437e-06	1.164507e-09	2.752076e+01	3.143514e+02
2.770000e-06	5.133774e-06	1.172179e-09	2.774960e+01	3.163569e+02
2.780000e-06	5.175495e-06	1.179270e-09	2.797512e+01	3.183183e+02
2.790000e-06	5.216660e-06	1.185905e-09	2.819762e+01	3.202358e+02
2.800000e-06	5.257226e-06	1.193127e-09	2.841689e+01	3.221098e+02
2.810000e-06	5.297298e-06	1.201213e-09	2.863350e+01	3.239408e+02
2.820000e-06	5.337044e-06	1.209356e-09	2.884834e+01	3.257293e+02
2.830000e-06	5.376551e-06	1.217611e-09	2.906188e+01	3.274759e+02
2.840000e-06	5.415874e-06	1.225402e-09	2.927444e+01	3.291814e+02
2.850000e-06	5.454877e-06	1.232362e-09	2.948526e+01	3.308467e+02
2.860000e-06	5.493385e-06	1.239194e-09	2.969341e+01	3.324728e+02
2.870000e-06	5.531486e-06	1.245202e-09	2.989935e+01	3.340608e+02
2.880000e-06	5.569201e-06	1.250235e-09	3.010321e+01	3.356119e+02
2.890000e-06	5.606545e-06	1.255701e-09	3.030507e+01	3.371275e+02
2.900000e-06	5.643510e-06	1.262629e-09	3.050488e+01	3.386091e+02
