# Temperatura_=_-3.6
# Concentracion g/m^3_=_7400.0
# C_Vs_to_Am_M_A/Vsm_=_254322799225.57578
# pendiente_HvsI_1/m_=_3716.3
# ordenada_HvsI_A/m_=_1297.0
# frecuencia_Hz_=_136110.0663342269

Tiempo_(s)	Campo_(V.s)	Magnetizacion_(V.s)	Campo_(kA/m)	Magnetizacion_(A/m)
0.000000e+00	-7.120700e-06	-1.232942e-09	-3.843615e+01	-3.104940e+02
1.000000e-08	-7.120939e-06	-1.231448e-09	-3.843744e+01	-3.105229e+02
2.000000e-08	-7.120904e-06	-1.230442e-09	-3.843725e+01	-3.105406e+02
3.000000e-08	-7.120309e-06	-1.230188e-09	-3.843403e+01	-3.105469e+02
4.000000e-08	-7.118900e-06	-1.230346e-09	-3.842643e+01	-3.105419e+02
5.000000e-08	-7.116647e-06	-1.230100e-09	-3.841427e+01	-3.105256e+02
6.000000e-08	-7.113742e-06	-1.229448e-09	-3.839859e+01	-3.104981e+02
7.000000e-08	-7.110359e-06	-1.232918e-09	-3.838033e+01	-3.104595e+02
8.000000e-08	-7.106588e-06	-1.238760e-09	-3.835997e+01	-3.104099e+02
9.000000e-08	-7.102298e-06	-1.220557e-09	-3.833682e+01	-3.103494e+02
1.000000e-07	-7.097283e-06	-1.178040e-09	-3.830975e+01	-3.102783e+02
1.100000e-07	-7.091571e-06	-1.194979e-09	-3.827892e+01	-3.101966e+02
1.200000e-07	-7.085529e-06	-1.274088e-09	-3.824630e+01	-3.101046e+02
1.300000e-07	-7.079383e-06	-1.265762e-09	-3.821313e+01	-3.100024e+02
1.400000e-07	-7.072579e-06	-1.165311e-09	-3.817640e+01	-3.098903e+02
1.500000e-07	-7.065003e-06	-1.169456e-09	-3.813551e+01	-3.097685e+02
1.600000e-07	-7.057278e-06	-1.283527e-09	-3.809381e+01	-3.096370e+02
1.700000e-07	-7.049569e-06	-1.261435e-09	-3.805220e+01	-3.094961e+02
1.800000e-07	-7.041112e-06	-1.117539e-09	-3.800655e+01	-3.093459e+02
1.900000e-07	-7.031569e-06	-1.147877e-09	-3.795504e+01	-3.091864e+02
2.000000e-07	-7.021446e-06	-1.305978e-09	-3.790039e+01	-3.090177e+02
2.100000e-07	-7.010872e-06	-1.268046e-09	-3.784332e+01	-3.088398e+02
2.200000e-07	-6.999733e-06	-1.111994e-09	-3.778319e+01	-3.086527e+02
2.300000e-07	-6.987947e-06	-1.153993e-09	-3.771957e+01	-3.084563e+02
2.400000e-07	-6.975648e-06	-1.274758e-09	-3.765319e+01	-3.082505e+02
2.500000e-07	-6.962862e-06	-1.208898e-09	-3.758417e+01	-3.080351e+02
2.600000e-07	-6.949413e-06	-1.125275e-09	-3.751157e+01	-3.078099e+02
2.700000e-07	-6.935441e-06	-1.209308e-09	-3.743616e+01	-3.075746e+02
2.800000e-07	-6.920903e-06	-1.247772e-09	-3.735768e+01	-3.073290e+02
2.900000e-07	-6.905468e-06	-1.159698e-09	-3.727437e+01	-3.070727e+02
3.000000e-07	-6.889372e-06	-1.168378e-09	-3.718749e+01	-3.068054e+02
3.100000e-07	-6.872829e-06	-1.233628e-09	-3.709819e+01	-3.065266e+02
3.200000e-07	-6.855843e-06	-1.167702e-09	-3.700650e+01	-3.062360e+02
3.300000e-07	-6.838453e-06	-1.131421e-09	-3.691263e+01	-3.059331e+02
3.400000e-07	-6.820714e-06	-1.240962e-09	-3.681688e+01	-3.056175e+02
3.500000e-07	-6.802547e-06	-1.239328e-09	-3.671882e+01	-3.052888e+02
3.600000e-07	-6.783721e-06	-1.112688e-09	-3.661720e+01	-3.049465e+02
3.700000e-07	-6.764329e-06	-1.145760e-09	-3.651252e+01	-3.045903e+02
3.800000e-07	-6.744673e-06	-1.244957e-09	-3.640643e+01	-3.042196e+02
3.900000e-07	-6.724797e-06	-1.174261e-09	-3.629914e+01	-3.038343e+02
4.000000e-07	-6.704418e-06	-1.115778e-09	-3.618914e+01	-3.034338e+02
4.100000e-07	-6.683366e-06	-1.197458e-09	-3.607551e+01	-3.030179e+02
4.200000e-07	-6.661785e-06	-1.201284e-09	-3.595902e+01	-3.025864e+02
4.300000e-07	-6.639812e-06	-1.130364e-09	-3.584041e+01	-3.021390e+02
4.400000e-07	-6.617405e-06	-1.164996e-09	-3.571946e+01	-3.016754e+02
4.500000e-07	-6.594462e-06	-1.192023e-09	-3.559562e+01	-3.011956e+02
4.600000e-07	-6.571109e-06	-1.127556e-09	-3.546956e+01	-3.006995e+02
4.700000e-07	-6.547466e-06	-1.139793e-09	-3.534194e+01	-3.001869e+02
4.800000e-07	-6.523570e-06	-1.198913e-09	-3.521296e+01	-2.996579e+02
4.900000e-07	-6.499290e-06	-1.151737e-09	-3.508190e+01	-2.991125e+02
5.000000e-07	-6.474387e-06	-1.111770e-09	-3.494748e+01	-2.985507e+02
5.100000e-07	-6.448705e-06	-1.161557e-09	-3.480885e+01	-2.979727e+02
5.200000e-07	-6.422123e-06	-1.162029e-09	-3.466537e+01	-2.973786e+02
5.300000e-07	-6.394906e-06	-1.119905e-09	-3.451845e+01	-2.967685e+02
5.400000e-07	-6.367372e-06	-1.141022e-09	-3.436983e+01	-2.961427e+02
5.500000e-07	-6.339681e-06	-1.155024e-09	-3.422036e+01	-2.955015e+02
5.600000e-07	-6.311639e-06	-1.120727e-09	-3.406899e+01	-2.948450e+02
5.700000e-07	-6.283104e-06	-1.122546e-09	-3.391497e+01	-2.941735e+02
5.800000e-07	-6.254178e-06	-1.139934e-09	-3.375883e+01	-2.934874e+02
5.900000e-07	-6.224827e-06	-1.116893e-09	-3.360040e+01	-2.927869e+02
6.000000e-07	-6.195011e-06	-1.107722e-09	-3.343946e+01	-2.920723e+02
6.100000e-07	-6.164749e-06	-1.126010e-09	-3.327611e+01	-2.913441e+02
6.200000e-07	-6.133878e-06	-1.119088e-09	-3.310948e+01	-2.906025e+02
6.300000e-07	-6.102475e-06	-1.102979e-09	-3.293997e+01	-2.898478e+02
6.400000e-07	-6.070910e-06	-1.105244e-09	-3.276959e+01	-2.890805e+02
6.500000e-07	-6.039258e-06	-1.102591e-09	-3.259874e+01	-2.883008e+02
6.600000e-07	-6.007306e-06	-1.093706e-09	-3.242626e+01	-2.875091e+02
6.700000e-07	-5.974804e-06	-1.095610e-09	-3.225083e+01	-2.867057e+02
6.800000e-07	-5.941591e-06	-1.095211e-09	-3.207155e+01	-2.858909e+02
6.900000e-07	-5.907643e-06	-1.084841e-09	-3.188831e+01	-2.850650e+02
7.000000e-07	-5.873066e-06	-1.076904e-09	-3.170166e+01	-2.842284e+02
7.100000e-07	-5.838073e-06	-1.073426e-09	-3.151278e+01	-2.833813e+02
7.200000e-07	-5.802741e-06	-1.070608e-09	-3.132206e+01	-2.825239e+02
7.300000e-07	-5.767016e-06	-1.067771e-09	-3.112922e+01	-2.816565e+02
7.400000e-07	-5.731033e-06	-1.063938e-09	-3.093500e+01	-2.807793e+02
7.500000e-07	-5.694765e-06	-1.060939e-09	-3.073923e+01	-2.798923e+02
7.600000e-07	-5.658042e-06	-1.059374e-09	-3.054101e+01	-2.789957e+02
7.700000e-07	-5.620892e-06	-1.054614e-09	-3.034048e+01	-2.780896e+02
7.800000e-07	-5.583368e-06	-1.046328e-09	-3.013793e+01	-2.771740e+02
7.900000e-07	-5.545345e-06	-1.038722e-09	-2.993269e+01	-2.762488e+02
8.000000e-07	-5.506775e-06	-1.034621e-09	-2.972449e+01	-2.753139e+02
8.100000e-07	-5.467715e-06	-1.032976e-09	-2.951366e+01	-2.743691e+02
8.200000e-07	-5.428500e-06	-1.030384e-09	-2.930198e+01	-2.734143e+02
8.300000e-07	-5.389132e-06	-1.024306e-09	-2.908948e+01	-2.724489e+02
8.400000e-07	-5.349426e-06	-1.017044e-09	-2.887516e+01	-2.714727e+02
8.500000e-07	-5.309497e-06	-1.012783e-09	-2.865963e+01	-2.704851e+02
8.600000e-07	-5.269164e-06	-1.009810e-09	-2.844192e+01	-2.694855e+02
8.700000e-07	-5.228388e-06	-1.004312e-09	-2.822182e+01	-2.684733e+02
8.800000e-07	-5.187228e-06	-9.973745e-10	-2.799964e+01	-2.674477e+02
8.900000e-07	-5.145493e-06	-9.920626e-10	-2.777437e+01	-2.664078e+02
9.000000e-07	-5.103039e-06	-9.885926e-10	-2.754521e+01	-2.653527e+02
9.100000e-07	-5.059920e-06	-9.849290e-10	-2.731246e+01	-2.642815e+02
9.200000e-07	-5.016415e-06	-9.799921e-10	-2.707763e+01	-2.631929e+02
9.300000e-07	-4.972736e-06	-9.740363e-10	-2.684186e+01	-2.620858e+02
9.400000e-07	-4.928868e-06	-9.684957e-10	-2.660507e+01	-2.609591e+02
9.500000e-07	-4.884658e-06	-9.644821e-10	-2.636643e+01	-2.598115e+02
9.600000e-07	-4.840131e-06	-9.597099e-10	-2.612608e+01	-2.586417e+02
9.700000e-07	-4.795304e-06	-9.529127e-10	-2.588411e+01	-2.574483e+02
9.800000e-07	-4.750163e-06	-9.459163e-10	-2.564045e+01	-2.562301e+02
9.900000e-07	-4.704515e-06	-9.405125e-10	-2.539405e+01	-2.549857e+02
1.000000e-06	-4.658397e-06	-9.359776e-10	-2.514512e+01	-2.537138e+02
1.010000e-06	-4.612088e-06	-9.318831e-10	-2.489515e+01	-2.524132e+02
1.020000e-06	-4.565604e-06	-9.271042e-10	-2.464424e+01	-2.510828e+02
1.030000e-06	-4.518794e-06	-9.213731e-10	-2.439157e+01	-2.497212e+02
1.040000e-06	-4.471669e-06	-9.159045e-10	-2.413719e+01	-2.483276e+02
1.050000e-06	-4.424321e-06	-9.104647e-10	-2.388162e+01	-2.469009e+02
1.060000e-06	-4.376711e-06	-9.043944e-10	-2.362463e+01	-2.454404e+02
1.070000e-06	-4.328867e-06	-8.979786e-10	-2.336638e+01	-2.439452e+02
1.080000e-06	-4.280764e-06	-8.918937e-10	-2.310673e+01	-2.424150e+02
1.090000e-06	-4.232354e-06	-8.855874e-10	-2.284542e+01	-2.408491e+02
1.100000e-06	-4.183496e-06	-8.784584e-10	-2.258170e+01	-2.392475e+02
1.110000e-06	-4.133857e-06	-8.716303e-10	-2.231375e+01	-2.376098e+02
1.120000e-06	-4.083678e-06	-8.655340e-10	-2.204289e+01	-2.359363e+02
1.130000e-06	-4.033288e-06	-8.594067e-10	-2.177090e+01	-2.342270e+02
1.140000e-06	-3.982605e-06	-8.524821e-10	-2.149732e+01	-2.324824e+02
1.150000e-06	-3.931547e-06	-8.447853e-10	-2.122172e+01	-2.307028e+02
1.160000e-06	-3.880065e-06	-8.376633e-10	-2.094383e+01	-2.288891e+02
1.170000e-06	-3.828355e-06	-8.311412e-10	-2.066471e+01	-2.270418e+02
1.180000e-06	-3.776369e-06	-8.243694e-10	-2.038410e+01	-2.251619e+02
1.190000e-06	-3.724076e-06	-8.162609e-10	-2.010184e+01	-2.232504e+02
1.200000e-06	-3.671529e-06	-8.082921e-10	-1.981819e+01	-2.213082e+02
1.210000e-06	-3.618645e-06	-8.019609e-10	-1.953274e+01	-2.193366e+02
1.220000e-06	-3.565589e-06	-7.958099e-10	-1.924635e+01	-2.173367e+02
1.230000e-06	-3.512427e-06	-7.886007e-10	-1.895940e+01	-2.153096e+02
1.240000e-06	-3.458937e-06	-7.797290e-10	-1.867066e+01	-2.132566e+02
1.250000e-06	-3.405113e-06	-7.698795e-10	-1.838014e+01	-2.111788e+02
1.260000e-06	-3.351052e-06	-7.604510e-10	-1.808832e+01	-2.090773e+02
1.270000e-06	-3.296662e-06	-7.514282e-10	-1.779474e+01	-2.069532e+02
1.280000e-06	-3.241997e-06	-7.433344e-10	-1.749967e+01	-2.048075e+02
1.290000e-06	-3.187212e-06	-7.359634e-10	-1.720395e+01	-2.026410e+02
1.300000e-06	-3.132204e-06	-7.285973e-10	-1.690702e+01	-2.004546e+02
1.310000e-06	-3.076954e-06	-7.210273e-10	-1.660880e+01	-1.982488e+02
1.320000e-06	-3.021501e-06	-7.129429e-10	-1.630947e+01	-1.960241e+02
1.330000e-06	-2.965910e-06	-7.031751e-10	-1.600940e+01	-1.937810e+02
1.340000e-06	-2.910227e-06	-6.927894e-10	-1.570884e+01	-1.915196e+02
1.350000e-06	-2.854477e-06	-6.838819e-10	-1.540791e+01	-1.892400e+02
1.360000e-06	-2.798527e-06	-6.751913e-10	-1.510590e+01	-1.869420e+02
1.370000e-06	-2.742384e-06	-6.663782e-10	-1.480285e+01	-1.846255e+02
1.380000e-06	-2.686168e-06	-6.584936e-10	-1.449941e+01	-1.822899e+02
1.390000e-06	-2.629766e-06	-6.506854e-10	-1.419496e+01	-1.799347e+02
1.400000e-06	-2.573157e-06	-6.417648e-10	-1.388940e+01	-1.775592e+02
1.410000e-06	-2.516291e-06	-6.318235e-10	-1.358245e+01	-1.751626e+02
1.420000e-06	-2.459210e-06	-6.212487e-10	-1.327433e+01	-1.727440e+02
1.430000e-06	-2.401870e-06	-6.113163e-10	-1.296483e+01	-1.703024e+02
1.440000e-06	-2.344122e-06	-6.023630e-10	-1.265311e+01	-1.678366e+02
1.450000e-06	-2.286079e-06	-5.934861e-10	-1.233981e+01	-1.653455e+02
1.460000e-06	-2.227914e-06	-5.841379e-10	-1.202584e+01	-1.628280e+02
1.470000e-06	-2.169439e-06	-5.738692e-10	-1.171021e+01	-1.602828e+02
1.480000e-06	-2.110629e-06	-5.637557e-10	-1.139276e+01	-1.577086e+02
1.490000e-06	-2.051643e-06	-5.539504e-10	-1.107437e+01	-1.551044e+02
1.500000e-06	-1.992499e-06	-5.435009e-10	-1.075512e+01	-1.524688e+02
1.510000e-06	-1.933164e-06	-5.329384e-10	-1.043484e+01	-1.498008e+02
1.520000e-06	-1.873739e-06	-5.222610e-10	-1.011408e+01	-1.470994e+02
1.530000e-06	-1.814348e-06	-5.111403e-10	-9.793494e+00	-1.443634e+02
1.540000e-06	-1.754889e-06	-4.994989e-10	-9.472547e+00	-1.415920e+02
1.550000e-06	-1.695270e-06	-4.879795e-10	-9.150736e+00	-1.387843e+02
1.560000e-06	-1.635563e-06	-4.770371e-10	-8.828448e+00	-1.359396e+02
1.570000e-06	-1.575907e-06	-4.666012e-10	-8.506439e+00	-1.330572e+02
1.580000e-06	-1.516160e-06	-4.561476e-10	-8.183934e+00	-1.301366e+02
1.590000e-06	-1.456324e-06	-4.454440e-10	-7.860953e+00	-1.271772e+02
1.600000e-06	-1.396405e-06	-4.352684e-10	-7.537521e+00	-1.241788e+02
1.610000e-06	-1.336360e-06	-4.249648e-10	-7.213411e+00	-1.211411e+02
1.620000e-06	-1.276262e-06	-4.136778e-10	-6.889014e+00	-1.180638e+02
1.630000e-06	-1.216011e-06	-4.017063e-10	-6.563788e+00	-1.149468e+02
1.640000e-06	-1.155703e-06	-3.895683e-10	-6.238259e+00	-1.117901e+02
1.650000e-06	-1.095378e-06	-3.777676e-10	-5.912636e+00	-1.085937e+02
1.660000e-06	-1.034916e-06	-3.664186e-10	-5.586276e+00	-1.053578e+02
1.670000e-06	-9.745086e-07	-3.550176e-10	-5.260207e+00	-1.020823e+02
1.680000e-06	-9.140884e-07	-3.429686e-10	-4.934071e+00	-9.876751e+01
1.690000e-06	-8.534544e-07	-3.305027e-10	-4.606780e+00	-9.541360e+01
1.700000e-06	-7.927908e-07	-3.175517e-10	-4.279330e+00	-9.202078e+01
1.710000e-06	-7.321565e-07	-3.043829e-10	-3.952038e+00	-8.858933e+01
1.720000e-06	-6.714509e-07	-2.923291e-10	-3.624361e+00	-8.511951e+01
1.730000e-06	-6.105944e-07	-2.808171e-10	-3.295869e+00	-8.161163e+01
1.740000e-06	-5.496600e-07	-2.688739e-10	-2.966957e+00	-7.806602e+01
1.750000e-06	-4.886386e-07	-2.563769e-10	-2.637576e+00	-7.448303e+01
1.760000e-06	-4.275398e-07	-2.426611e-10	-2.307776e+00	-7.086304e+01
1.770000e-06	-3.665016e-07	-2.279291e-10	-1.978304e+00	-6.720647e+01
1.780000e-06	-3.054925e-07	-2.134592e-10	-1.648989e+00	-6.351381e+01
1.790000e-06	-2.444598e-07	-2.000495e-10	-1.319546e+00	-5.978556e+01
1.800000e-06	-1.834233e-07	-1.866168e-10	-9.900829e-01	-5.602232e+01
1.810000e-06	-1.223010e-07	-1.728758e-10	-6.601569e-01	-5.222477e+01
1.820000e-06	-6.111954e-08	-1.600997e-10	-3.299113e-01	-4.839366e+01
1.830000e-06	-2.470100e-11	-1.479409e-10	-1.333312e-04	-4.452987e+01
1.840000e-06	6.104232e-08	-1.344781e-10	3.294945e-01	-4.063437e+01
1.850000e-06	1.221879e-07	-1.195725e-10	6.595464e-01	-3.670827e+01
1.860000e-06	1.832801e-07	-1.048844e-10	9.893099e-01	-3.275282e+01
1.870000e-06	2.442998e-07	-8.969595e-11	1.318683e+00	-2.876943e+01
1.880000e-06	3.053364e-07	-7.406329e-11	1.648146e+00	-2.475965e+01
1.890000e-06	3.663349e-07	-6.004846e-11	1.977404e+00	-2.072520e+01
1.900000e-06	4.273434e-07	-4.686183e-11	2.306716e+00	-1.666798e+01
1.910000e-06	4.881900e-07	-3.300923e-11	2.635154e+00	-1.259006e+01
1.920000e-06	5.488675e-07	-1.905726e-11	2.962679e+00	-8.493671e+00
1.930000e-06	6.095698e-07	-4.537304e-12	3.290339e+00	-4.381221e+00
1.940000e-06	6.703151e-07	1.046817e-11	3.618230e+00	-2.552765e-01
1.950000e-06	7.310413e-07	2.529699e-11	3.946018e+00	3.881444e+00
1.960000e-06	7.917146e-07	4.008104e-11	4.273521e+00	8.026083e+00
1.970000e-06	8.523151e-07	5.437422e-11	4.600630e+00	1.217566e+01
1.980000e-06	9.128747e-07	6.823257e-11	4.927519e+00	1.632707e+01
1.990000e-06	9.733339e-07	8.218294e-11	5.253866e+00	2.047716e+01
2.000000e-06	1.033690e-06	9.649815e-11	5.579659e+00	2.462268e+01
2.010000e-06	1.094091e-06	1.105163e-10	5.905688e+00	2.876036e+01
2.020000e-06	1.154380e-06	1.241138e-10	6.231118e+00	3.288689e+01
2.030000e-06	1.214549e-06	1.382224e-10	6.555896e+00	3.699901e+01
2.040000e-06	1.274686e-06	1.529672e-10	6.880506e+00	4.109349e+01
2.050000e-06	1.334833e-06	1.680025e-10	7.205170e+00	4.516715e+01
2.060000e-06	1.394963e-06	1.835780e-10	7.529737e+00	4.921692e+01
2.070000e-06	1.454918e-06	1.986515e-10	7.853364e+00	5.323987e+01
2.080000e-06	1.514791e-06	2.121546e-10	8.176548e+00	5.723320e+01
2.090000e-06	1.574632e-06	2.253505e-10	8.499558e+00	6.119429e+01
2.100000e-06	1.634392e-06	2.394872e-10	8.822128e+00	6.512070e+01
2.110000e-06	1.694085e-06	2.535706e-10	9.144339e+00	6.901023e+01
2.120000e-06	1.753592e-06	2.670125e-10	9.465548e+00	7.286090e+01
2.130000e-06	1.812960e-06	2.806200e-10	9.786004e+00	7.667095e+01
2.140000e-06	1.872323e-06	2.949453e-10	1.010643e+01	8.043890e+01
2.150000e-06	1.931556e-06	3.100375e-10	1.042616e+01	8.416352e+01
2.160000e-06	1.990702e-06	3.241517e-10	1.074542e+01	8.784384e+01
2.170000e-06	2.049790e-06	3.370120e-10	1.106437e+01	9.147915e+01
2.180000e-06	2.108744e-06	3.499585e-10	1.138259e+01	9.506899e+01
2.190000e-06	2.167471e-06	3.631325e-10	1.169959e+01	9.861315e+01
2.200000e-06	2.225832e-06	3.766838e-10	1.201461e+01	1.021117e+02
2.210000e-06	2.283907e-06	3.895848e-10	1.232808e+01	1.055647e+02
2.220000e-06	2.341729e-06	4.017027e-10	1.264019e+01	1.089729e+02
2.230000e-06	2.399302e-06	4.131452e-10	1.295096e+01	1.123367e+02
2.240000e-06	2.456581e-06	4.245459e-10	1.326015e+01	1.156570e+02
2.250000e-06	2.513511e-06	4.372024e-10	1.356744e+01	1.189346e+02
2.260000e-06	2.570243e-06	4.502160e-10	1.387367e+01	1.221707e+02
2.270000e-06	2.626760e-06	4.629950e-10	1.417874e+01	1.253664e+02
2.280000e-06	2.682980e-06	4.754801e-10	1.448220e+01	1.285229e+02
2.290000e-06	2.739033e-06	4.871576e-10	1.478477e+01	1.316413e+02
2.300000e-06	2.794997e-06	4.979151e-10	1.508685e+01	1.347230e+02
2.310000e-06	2.850730e-06	5.080073e-10	1.538768e+01	1.377692e+02
2.320000e-06	2.906321e-06	5.185715e-10	1.568775e+01	1.407811e+02
2.330000e-06	2.961761e-06	5.296645e-10	1.598700e+01	1.437598e+02
2.340000e-06	3.017014e-06	5.404241e-10	1.628525e+01	1.467065e+02
2.350000e-06	3.072141e-06	5.516240e-10	1.658281e+01	1.496221e+02
2.360000e-06	3.127018e-06	5.627902e-10	1.687903e+01	1.525075e+02
2.370000e-06	3.181736e-06	5.727218e-10	1.717439e+01	1.553635e+02
2.380000e-06	3.236306e-06	5.823339e-10	1.746895e+01	1.581908e+02
2.390000e-06	3.290847e-06	5.923899e-10	1.776335e+01	1.609899e+02
2.400000e-06	3.345275e-06	6.028880e-10	1.805714e+01	1.637613e+02
2.410000e-06	3.399205e-06	6.132676e-10	1.834824e+01	1.665052e+02
2.420000e-06	3.452685e-06	6.232097e-10	1.863692e+01	1.692218e+02
2.430000e-06	3.505952e-06	6.330735e-10	1.892444e+01	1.719112e+02
2.440000e-06	3.559106e-06	6.425112e-10	1.921136e+01	1.745732e+02
2.450000e-06	3.612137e-06	6.512427e-10	1.949761e+01	1.772079e+02
2.460000e-06	3.664916e-06	6.597912e-10	1.978250e+01	1.798148e+02
2.470000e-06	3.717345e-06	6.688314e-10	2.006550e+01	1.823936e+02
2.480000e-06	3.769478e-06	6.777906e-10	2.034691e+01	1.849440e+02
2.490000e-06	3.821266e-06	6.860454e-10	2.062645e+01	1.874654e+02
2.500000e-06	3.872669e-06	6.941106e-10	2.090391e+01	1.899574e+02
2.510000e-06	3.923793e-06	7.026688e-10	2.117987e+01	1.924195e+02
2.520000e-06	3.974623e-06	7.113233e-10	2.145424e+01	1.948510e+02
2.530000e-06	4.025014e-06	7.200261e-10	2.172624e+01	1.972514e+02
2.540000e-06	4.074998e-06	7.289215e-10	2.199604e+01	1.996201e+02
2.550000e-06	4.124567e-06	7.371915e-10	2.226361e+01	2.019566e+02
2.560000e-06	4.173680e-06	7.444825e-10	2.252871e+01	2.042603e+02
2.570000e-06	4.222459e-06	7.517373e-10	2.279201e+01	2.065309e+02
2.580000e-06	4.270928e-06	7.600203e-10	2.305364e+01	2.087677e+02
2.590000e-06	4.319000e-06	7.690697e-10	2.331312e+01	2.109704e+02
2.600000e-06	4.366748e-06	7.776994e-10	2.357085e+01	2.131387e+02
2.610000e-06	4.414346e-06	7.852593e-10	2.382778e+01	2.152722e+02
2.620000e-06	4.461597e-06	7.928801e-10	2.408283e+01	2.173706e+02
2.630000e-06	4.508442e-06	8.011994e-10	2.433569e+01	2.194338e+02
2.640000e-06	4.555026e-06	8.093744e-10	2.458714e+01	2.214617e+02
2.650000e-06	4.601181e-06	8.172467e-10	2.483628e+01	2.234541e+02
2.660000e-06	4.646973e-06	8.241130e-10	2.508345e+01	2.254109e+02
2.670000e-06	4.692611e-06	8.295954e-10	2.532980e+01	2.273323e+02
2.680000e-06	4.737888e-06	8.356587e-10	2.557420e+01	2.292183e+02
2.690000e-06	4.782779e-06	8.428458e-10	2.581651e+01	2.310689e+02
2.700000e-06	4.827424e-06	8.502155e-10	2.605749e+01	2.328844e+02
2.710000e-06	4.871777e-06	8.572184e-10	2.629690e+01	2.346649e+02
2.720000e-06	4.915840e-06	8.634296e-10	2.653474e+01	2.364108e+02
2.730000e-06	4.959668e-06	8.700017e-10	2.677132e+01	2.381222e+02
2.740000e-06	5.003252e-06	8.768008e-10	2.700658e+01	2.397996e+02
2.750000e-06	5.046550e-06	8.826211e-10	2.724029e+01	2.414433e+02
2.760000e-06	5.089555e-06	8.874498e-10	2.747242e+01	2.430537e+02
2.770000e-06	5.132023e-06	8.927030e-10	2.770166e+01	2.446313e+02
2.780000e-06	5.173861e-06	8.993038e-10	2.792749e+01	2.461766e+02
2.790000e-06	5.215195e-06	9.060013e-10	2.815060e+01	2.476901e+02
2.800000e-06	5.256048e-06	9.117679e-10	2.837112e+01	2.491725e+02
2.810000e-06	5.296347e-06	9.171895e-10	2.858865e+01	2.506244e+02
2.820000e-06	5.336232e-06	9.234143e-10	2.880394e+01	2.520465e+02
2.830000e-06	5.375914e-06	9.303673e-10	2.901813e+01	2.534394e+02
2.840000e-06	5.415356e-06	9.366862e-10	2.923103e+01	2.548042e+02
2.850000e-06	5.454519e-06	9.424270e-10	2.944243e+01	2.561414e+02
2.860000e-06	5.493162e-06	9.482164e-10	2.965102e+01	2.574522e+02
2.870000e-06	5.531347e-06	9.529930e-10	2.985713e+01	2.587374e+02
2.880000e-06	5.569215e-06	9.575702e-10	3.006153e+01	2.599979e+02
2.890000e-06	5.606680e-06	9.628991e-10	3.026376e+01	2.612349e+02
2.900000e-06	5.643680e-06	9.677631e-10	3.046348e+01	2.624494e+02
