# Temperatura_=_18.6
# Concentracion g/m^3_=_7400.0
# C_Vs_to_Am_M_A/Vsm_=_254322799225.57578
# pendiente_HvsI_1/m_=_3716.3
# ordenada_HvsI_A/m_=_1297.0
# frecuencia_Hz_=_136117.84067132117

Tiempo_(s)	Campo_(V.s)	Magnetizacion_(V.s)	Campo_(kA/m)	Magnetizacion_(A/m)
0.000000e+00	-7.141241e-06	-1.648881e-09	-3.843334e+01	-4.141432e+02
1.000000e-08	-7.141499e-06	-1.647441e-09	-3.843473e+01	-4.140915e+02
2.000000e-08	-7.141287e-06	-1.646146e-09	-3.843359e+01	-4.140217e+02
3.000000e-08	-7.140560e-06	-1.645536e-09	-3.842968e+01	-4.139351e+02
4.000000e-08	-7.138932e-06	-1.645168e-09	-3.842092e+01	-4.138331e+02
5.000000e-08	-7.136556e-06	-1.643803e-09	-3.840813e+01	-4.137171e+02
6.000000e-08	-7.133764e-06	-1.642393e-09	-3.839310e+01	-4.135884e+02
7.000000e-08	-7.130482e-06	-1.643604e-09	-3.837544e+01	-4.134485e+02
8.000000e-08	-7.126678e-06	-1.642594e-09	-3.835497e+01	-4.132987e+02
9.000000e-08	-7.122228e-06	-1.634404e-09	-3.833102e+01	-4.131403e+02
1.000000e-07	-7.117089e-06	-1.625099e-09	-3.830336e+01	-4.129746e+02
1.100000e-07	-7.111405e-06	-1.626499e-09	-3.827277e+01	-4.128028e+02
1.200000e-07	-7.105419e-06	-1.623735e-09	-3.824055e+01	-4.126259e+02
1.300000e-07	-7.099052e-06	-1.632756e-09	-3.820629e+01	-4.124450e+02
1.400000e-07	-7.092198e-06	-1.642545e-09	-3.816940e+01	-4.122609e+02
1.500000e-07	-7.084796e-06	-1.627073e-09	-3.812956e+01	-4.120742e+02
1.600000e-07	-7.077008e-06	-1.609481e-09	-3.808765e+01	-4.118856e+02
1.700000e-07	-7.069011e-06	-1.617836e-09	-3.804461e+01	-4.116953e+02
1.800000e-07	-7.060428e-06	-1.636980e-09	-3.799842e+01	-4.115037e+02
1.900000e-07	-7.050916e-06	-1.609879e-09	-3.794723e+01	-4.113109e+02
2.000000e-07	-7.040738e-06	-1.585487e-09	-3.789245e+01	-4.111167e+02
2.100000e-07	-7.030053e-06	-1.619395e-09	-3.783494e+01	-4.109209e+02
2.200000e-07	-7.018757e-06	-1.643972e-09	-3.777415e+01	-4.107231e+02
2.300000e-07	-7.006893e-06	-1.597861e-09	-3.771030e+01	-4.105228e+02
2.400000e-07	-6.994567e-06	-1.571882e-09	-3.764396e+01	-4.103192e+02
2.500000e-07	-6.981784e-06	-1.613098e-09	-3.757516e+01	-4.101117e+02
2.600000e-07	-6.968479e-06	-1.624691e-09	-3.750356e+01	-4.098993e+02
2.700000e-07	-6.954549e-06	-1.580645e-09	-3.742859e+01	-4.096811e+02
2.800000e-07	-6.939614e-06	-1.582296e-09	-3.734821e+01	-4.094559e+02
2.900000e-07	-6.923787e-06	-1.622660e-09	-3.726303e+01	-4.092227e+02
3.000000e-07	-6.907449e-06	-1.600927e-09	-3.717510e+01	-4.089802e+02
3.100000e-07	-6.890846e-06	-1.567074e-09	-3.708574e+01	-4.087274e+02
3.200000e-07	-6.873973e-06	-1.594949e-09	-3.699494e+01	-4.084629e+02
3.300000e-07	-6.856694e-06	-1.608028e-09	-3.690194e+01	-4.081857e+02
3.400000e-07	-6.839011e-06	-1.570968e-09	-3.680678e+01	-4.078945e+02
3.500000e-07	-6.820755e-06	-1.580119e-09	-3.670853e+01	-4.075881e+02
3.600000e-07	-6.801896e-06	-1.612898e-09	-3.660703e+01	-4.072656e+02
3.700000e-07	-6.782600e-06	-1.575996e-09	-3.650318e+01	-4.069258e+02
3.800000e-07	-6.763015e-06	-1.545502e-09	-3.639778e+01	-4.065677e+02
3.900000e-07	-6.743168e-06	-1.586103e-09	-3.629096e+01	-4.061906e+02
4.000000e-07	-6.722751e-06	-1.589253e-09	-3.618108e+01	-4.057935e+02
4.100000e-07	-6.701666e-06	-1.544672e-09	-3.606760e+01	-4.053757e+02
4.200000e-07	-6.680145e-06	-1.559597e-09	-3.595178e+01	-4.049367e+02
4.300000e-07	-6.658220e-06	-1.588465e-09	-3.583378e+01	-4.044758e+02
4.400000e-07	-6.635832e-06	-1.552780e-09	-3.571329e+01	-4.039926e+02
4.500000e-07	-6.612960e-06	-1.538351e-09	-3.559020e+01	-4.034867e+02
4.600000e-07	-6.589628e-06	-1.565927e-09	-3.546462e+01	-4.029580e+02
4.700000e-07	-6.565974e-06	-1.551285e-09	-3.533732e+01	-4.024062e+02
4.800000e-07	-6.541839e-06	-1.531799e-09	-3.520743e+01	-4.018313e+02
4.900000e-07	-6.516981e-06	-1.556231e-09	-3.507365e+01	-4.012332e+02
5.000000e-07	-6.491538e-06	-1.551427e-09	-3.493671e+01	-4.006120e+02
5.100000e-07	-6.465450e-06	-1.521446e-09	-3.479632e+01	-3.999679e+02
5.200000e-07	-6.438830e-06	-1.533995e-09	-3.465305e+01	-3.993011e+02
5.300000e-07	-6.411806e-06	-1.544683e-09	-3.450761e+01	-3.986119e+02
5.400000e-07	-6.384335e-06	-1.521874e-09	-3.435976e+01	-3.979007e+02
5.500000e-07	-6.356585e-06	-1.521722e-09	-3.421041e+01	-3.971677e+02
5.600000e-07	-6.328435e-06	-1.532723e-09	-3.405891e+01	-3.964135e+02
5.700000e-07	-6.299801e-06	-1.517120e-09	-3.390481e+01	-3.956386e+02
5.800000e-07	-6.270797e-06	-1.511651e-09	-3.374871e+01	-3.948434e+02
5.900000e-07	-6.241387e-06	-1.518979e-09	-3.359043e+01	-3.940285e+02
6.000000e-07	-6.211543e-06	-1.507050e-09	-3.342981e+01	-3.931944e+02
6.100000e-07	-6.181273e-06	-1.500024e-09	-3.326691e+01	-3.923417e+02
6.200000e-07	-6.150432e-06	-1.507785e-09	-3.310092e+01	-3.914710e+02
6.300000e-07	-6.118938e-06	-1.501195e-09	-3.293142e+01	-3.905829e+02
6.400000e-07	-6.087220e-06	-1.492182e-09	-3.276072e+01	-3.896779e+02
6.500000e-07	-6.055526e-06	-1.492543e-09	-3.259015e+01	-3.887566e+02
6.600000e-07	-6.023456e-06	-1.485009e-09	-3.241755e+01	-3.878196e+02
6.700000e-07	-5.990777e-06	-1.477318e-09	-3.224168e+01	-3.868674e+02
6.800000e-07	-5.957480e-06	-1.478841e-09	-3.206248e+01	-3.859005e+02
6.900000e-07	-5.923428e-06	-1.472779e-09	-3.187921e+01	-3.849194e+02
7.000000e-07	-5.888711e-06	-1.463743e-09	-3.169237e+01	-3.839244e+02
7.100000e-07	-5.853580e-06	-1.461387e-09	-3.150330e+01	-3.829160e+02
7.200000e-07	-5.818115e-06	-1.456205e-09	-3.131243e+01	-3.818944e+02
7.300000e-07	-5.782402e-06	-1.448541e-09	-3.112022e+01	-3.808600e+02
7.400000e-07	-5.746449e-06	-1.446378e-09	-3.092673e+01	-3.798130e+02
7.500000e-07	-5.710127e-06	-1.441843e-09	-3.073125e+01	-3.787533e+02
7.600000e-07	-5.673260e-06	-1.435417e-09	-3.053283e+01	-3.776812e+02
7.700000e-07	-5.635856e-06	-1.433418e-09	-3.033153e+01	-3.765966e+02
7.800000e-07	-5.598153e-06	-1.428785e-09	-3.012862e+01	-3.754993e+02
7.900000e-07	-5.560159e-06	-1.419557e-09	-2.992414e+01	-3.743893e+02
8.000000e-07	-5.521697e-06	-1.413494e-09	-2.971714e+01	-3.732661e+02
8.100000e-07	-5.482633e-06	-1.408970e-09	-2.950690e+01	-3.721295e+02
8.200000e-07	-5.443126e-06	-1.403363e-09	-2.929428e+01	-3.709791e+02
8.300000e-07	-5.403518e-06	-1.398999e-09	-2.908112e+01	-3.698142e+02
8.400000e-07	-5.363752e-06	-1.393500e-09	-2.886710e+01	-3.686345e+02
8.500000e-07	-5.323631e-06	-1.386456e-09	-2.865118e+01	-3.674391e+02
8.600000e-07	-5.283033e-06	-1.380715e-09	-2.843268e+01	-3.662274e+02
8.700000e-07	-5.241960e-06	-1.376022e-09	-2.821163e+01	-3.649986e+02
8.800000e-07	-5.200429e-06	-1.370152e-09	-2.798811e+01	-3.637520e+02
8.900000e-07	-5.158299e-06	-1.364497e-09	-2.776138e+01	-3.624867e+02
9.000000e-07	-5.115626e-06	-1.358733e-09	-2.753172e+01	-3.612019e+02
9.100000e-07	-5.072483e-06	-1.353314e-09	-2.729952e+01	-3.598967e+02
9.200000e-07	-5.028965e-06	-1.347606e-09	-2.706532e+01	-3.585701e+02
9.300000e-07	-4.985238e-06	-1.340672e-09	-2.682998e+01	-3.572215e+02
9.400000e-07	-4.941221e-06	-1.333499e-09	-2.659309e+01	-3.558500e+02
9.500000e-07	-4.896957e-06	-1.327212e-09	-2.635486e+01	-3.544546e+02
9.600000e-07	-4.852355e-06	-1.321019e-09	-2.611482e+01	-3.530348e+02
9.700000e-07	-4.807386e-06	-1.315306e-09	-2.587280e+01	-3.515898e+02
9.800000e-07	-4.762158e-06	-1.309490e-09	-2.562939e+01	-3.501190e+02
9.900000e-07	-4.716620e-06	-1.302709e-09	-2.538431e+01	-3.486218e+02
1.000000e-06	-4.670749e-06	-1.295935e-09	-2.513744e+01	-3.470977e+02
1.010000e-06	-4.624557e-06	-1.290337e-09	-2.488884e+01	-3.455463e+02
1.020000e-06	-4.578092e-06	-1.284448e-09	-2.463877e+01	-3.439672e+02
1.030000e-06	-4.531288e-06	-1.277929e-09	-2.438687e+01	-3.423601e+02
1.040000e-06	-4.484147e-06	-1.271229e-09	-2.413317e+01	-3.407249e+02
1.050000e-06	-4.436666e-06	-1.264412e-09	-2.387763e+01	-3.390614e+02
1.060000e-06	-4.388899e-06	-1.257004e-09	-2.362055e+01	-3.373696e+02
1.070000e-06	-4.340929e-06	-1.249695e-09	-2.336238e+01	-3.356494e+02
1.080000e-06	-4.292630e-06	-1.243314e-09	-2.310244e+01	-3.339009e+02
1.090000e-06	-4.243911e-06	-1.236359e-09	-2.284024e+01	-3.321240e+02
1.100000e-06	-4.194630e-06	-1.229836e-09	-2.257502e+01	-3.303190e+02
1.110000e-06	-4.144872e-06	-1.223563e-09	-2.230723e+01	-3.284858e+02
1.120000e-06	-4.094725e-06	-1.215527e-09	-2.203734e+01	-3.266246e+02
1.130000e-06	-4.044016e-06	-1.206377e-09	-2.176443e+01	-3.247355e+02
1.140000e-06	-3.992865e-06	-1.198026e-09	-2.148914e+01	-3.228184e+02
1.150000e-06	-3.941491e-06	-1.190900e-09	-2.121265e+01	-3.208735e+02
1.160000e-06	-3.889953e-06	-1.184883e-09	-2.093528e+01	-3.189005e+02
1.170000e-06	-3.838201e-06	-1.178299e-09	-2.065676e+01	-3.168996e+02
1.180000e-06	-3.786201e-06	-1.170617e-09	-2.037690e+01	-3.148704e+02
1.190000e-06	-3.733797e-06	-1.162146e-09	-2.009487e+01	-3.128128e+02
1.200000e-06	-3.681010e-06	-1.153863e-09	-1.981077e+01	-3.107264e+02
1.210000e-06	-3.627951e-06	-1.146038e-09	-1.952522e+01	-3.086109e+02
1.220000e-06	-3.574611e-06	-1.138053e-09	-1.923815e+01	-3.064658e+02
1.230000e-06	-3.520984e-06	-1.129630e-09	-1.894953e+01	-3.042905e+02
1.240000e-06	-3.467102e-06	-1.121529e-09	-1.865955e+01	-3.020844e+02
1.250000e-06	-3.413136e-06	-1.113492e-09	-1.836911e+01	-2.998470e+02
1.260000e-06	-3.359084e-06	-1.104629e-09	-1.807821e+01	-2.975775e+02
1.270000e-06	-3.304756e-06	-1.095422e-09	-1.778582e+01	-2.952752e+02
1.280000e-06	-3.250000e-06	-1.086412e-09	-1.749113e+01	-2.929394e+02
1.290000e-06	-3.194856e-06	-1.077736e-09	-1.719435e+01	-2.905692e+02
1.300000e-06	-3.139557e-06	-1.069564e-09	-1.689674e+01	-2.881640e+02
1.310000e-06	-3.084170e-06	-1.060688e-09	-1.659865e+01	-2.857230e+02
1.320000e-06	-3.028651e-06	-1.050549e-09	-1.629985e+01	-2.832456e+02
1.330000e-06	-2.973014e-06	-1.039315e-09	-1.600042e+01	-2.807312e+02
1.340000e-06	-2.917311e-06	-1.028555e-09	-1.570064e+01	-2.781792e+02
1.350000e-06	-2.861529e-06	-1.019323e-09	-1.540042e+01	-2.755891e+02
1.360000e-06	-2.805674e-06	-1.010013e-09	-1.509982e+01	-2.729605e+02
1.370000e-06	-2.749691e-06	-1.000728e-09	-1.479853e+01	-2.702933e+02
1.380000e-06	-2.693377e-06	-9.916331e-10	-1.449545e+01	-2.675871e+02
1.390000e-06	-2.636736e-06	-9.822554e-10	-1.419061e+01	-2.648420e+02
1.400000e-06	-2.579780e-06	-9.717978e-10	-1.388408e+01	-2.620579e+02
1.410000e-06	-2.522539e-06	-9.603274e-10	-1.357601e+01	-2.592349e+02
1.420000e-06	-2.465089e-06	-9.482619e-10	-1.326683e+01	-2.563732e+02
1.430000e-06	-2.407273e-06	-9.361818e-10	-1.295567e+01	-2.534730e+02
1.440000e-06	-2.349188e-06	-9.251853e-10	-1.264306e+01	-2.505346e+02
1.450000e-06	-2.290958e-06	-9.149133e-10	-1.232967e+01	-2.475582e+02
1.460000e-06	-2.232400e-06	-9.043624e-10	-1.201452e+01	-2.445442e+02
1.470000e-06	-2.173524e-06	-8.929086e-10	-1.169766e+01	-2.414927e+02
1.480000e-06	-2.114386e-06	-8.811578e-10	-1.137938e+01	-2.384039e+02
1.490000e-06	-2.055067e-06	-8.693552e-10	-1.106014e+01	-2.352778e+02
1.500000e-06	-1.995685e-06	-8.561325e-10	-1.074055e+01	-2.321144e+02
1.510000e-06	-1.936222e-06	-8.430362e-10	-1.042053e+01	-2.289134e+02
1.520000e-06	-1.876696e-06	-8.310094e-10	-1.010016e+01	-2.256744e+02
1.530000e-06	-1.817077e-06	-8.185438e-10	-9.779301e+00	-2.223966e+02
1.540000e-06	-1.757403e-06	-8.048139e-10	-9.458142e+00	-2.190792e+02
1.550000e-06	-1.697717e-06	-7.908846e-10	-9.136920e+00	-2.157209e+02
1.560000e-06	-1.637992e-06	-7.777268e-10	-8.815486e+00	-2.123202e+02
1.570000e-06	-1.578217e-06	-7.644483e-10	-8.493785e+00	-2.088752e+02
1.580000e-06	-1.518392e-06	-7.508812e-10	-8.171812e+00	-2.053838e+02
1.590000e-06	-1.458539e-06	-7.371401e-10	-7.849691e+00	-2.018435e+02
1.600000e-06	-1.398541e-06	-7.236616e-10	-7.526790e+00	-1.982515e+02
1.610000e-06	-1.338511e-06	-7.107109e-10	-7.203713e+00	-1.946047e+02
1.620000e-06	-1.278495e-06	-6.974377e-10	-6.880715e+00	-1.908996e+02
1.630000e-06	-1.218271e-06	-6.830774e-10	-6.556594e+00	-1.871326e+02
1.640000e-06	-1.157799e-06	-6.676431e-10	-6.231142e+00	-1.832998e+02
1.650000e-06	-1.097285e-06	-6.523590e-10	-5.905465e+00	-1.793970e+02
1.660000e-06	-1.036695e-06	-6.381507e-10	-5.579376e+00	-1.754201e+02
1.670000e-06	-9.759487e-07	-6.239626e-10	-5.252444e+00	-1.713647e+02
1.680000e-06	-9.152458e-07	-6.091210e-10	-4.925748e+00	-1.672264e+02
1.690000e-06	-8.545456e-07	-5.932875e-10	-4.599067e+00	-1.630010e+02
1.700000e-06	-7.938163e-07	-5.764773e-10	-4.272228e+00	-1.586842e+02
1.710000e-06	-7.329395e-07	-5.602377e-10	-3.944597e+00	-1.542720e+02
1.720000e-06	-6.719242e-07	-5.452141e-10	-3.616219e+00	-1.497605e+02
1.730000e-06	-6.108895e-07	-5.296025e-10	-3.287738e+00	-1.451465e+02
1.740000e-06	-5.497151e-07	-5.131710e-10	-2.958504e+00	-1.404267e+02
1.750000e-06	-4.885322e-07	-4.961823e-10	-2.629225e+00	-1.355985e+02
1.760000e-06	-4.274381e-07	-4.784860e-10	-2.300423e+00	-1.306600e+02
1.770000e-06	-3.662756e-07	-4.597784e-10	-1.971254e+00	-1.256095e+02
1.780000e-06	-3.049447e-07	-4.397827e-10	-1.641178e+00	-1.204463e+02
1.790000e-06	-2.435382e-07	-4.196706e-10	-1.310695e+00	-1.151702e+02
1.800000e-06	-1.821726e-07	-4.007145e-10	-9.804321e-01	-1.097817e+02
1.810000e-06	-1.208685e-07	-3.822394e-10	-6.505003e-01	-1.042823e+02
1.820000e-06	-5.968572e-08	-3.634215e-10	-3.212217e-01	-9.867401e+01
1.830000e-06	1.429335e-09	-3.437289e-10	7.692517e-03	-9.295978e+01
1.840000e-06	6.264026e-08	-3.221098e-10	3.371227e-01	-8.714332e+01
1.850000e-06	1.240114e-07	-2.996587e-10	6.674152e-01	-8.122912e+01
1.860000e-06	1.854136e-07	-2.770107e-10	9.978747e-01	-7.522242e+01
1.870000e-06	2.466325e-07	-2.532565e-10	1.327348e+00	-6.912920e+01
1.880000e-06	3.077413e-07	-2.286384e-10	1.656229e+00	-6.295610e+01
1.890000e-06	3.688355e-07	-2.055762e-10	1.985031e+00	-5.671039e+01
1.900000e-06	4.299328e-07	-1.831993e-10	2.313849e+00	-5.039992e+01
1.910000e-06	4.910685e-07	-1.594706e-10	2.642875e+00	-4.403301e+01
1.920000e-06	5.522333e-07	-1.348606e-10	2.972057e+00	-3.761839e+01
1.930000e-06	6.134477e-07	-1.090756e-10	3.301505e+00	-3.116513e+01
1.940000e-06	6.745405e-07	-8.329232e-11	3.630300e+00	-2.468253e+01
1.950000e-06	7.354759e-07	-5.887403e-11	3.958247e+00	-1.818004e+01
1.960000e-06	7.963760e-07	-3.519856e-11	4.286005e+00	-1.166715e+01
1.970000e-06	8.571677e-07	-1.151483e-11	4.613178e+00	-5.153307e+00
1.980000e-06	9.179267e-07	1.317162e-11	4.940177e+00	1.352163e+00
1.990000e-06	9.786735e-07	3.861964e-11	5.267109e+00	7.840177e+00
2.000000e-06	1.039296e-06	6.268089e-11	5.593370e+00	1.430196e+01
2.010000e-06	1.099939e-06	8.617999e-11	5.919748e+00	2.072914e+01
2.020000e-06	1.160584e-06	1.103696e-10	6.246130e+00	2.711379e+01
2.030000e-06	1.221086e-06	1.338403e-10	6.571745e+00	3.344855e+01
2.040000e-06	1.281377e-06	1.567990e-10	6.896224e+00	3.972664e+01
2.050000e-06	1.341536e-06	1.801717e-10	7.219992e+00	4.594190e+01
2.060000e-06	1.401665e-06	2.044376e-10	7.543599e+00	5.208889e+01
2.070000e-06	1.461650e-06	2.281754e-10	7.866434e+00	5.816283e+01
2.080000e-06	1.521518e-06	2.502329e-10	8.188636e+00	6.415971e+01
2.090000e-06	1.581300e-06	2.718840e-10	8.510375e+00	7.007620e+01
2.100000e-06	1.640989e-06	2.934607e-10	8.831617e+00	7.590974e+01
2.110000e-06	1.700635e-06	3.138324e-10	9.152626e+00	8.165844e+01
2.120000e-06	1.760273e-06	3.342147e-10	9.473587e+00	8.732113e+01
2.130000e-06	1.819920e-06	3.563415e-10	9.794601e+00	9.289726e+01
2.140000e-06	1.879511e-06	3.788254e-10	1.011531e+01	9.838691e+01
2.150000e-06	1.938975e-06	4.006921e-10	1.043534e+01	1.037907e+02
2.160000e-06	1.998326e-06	4.216788e-10	1.075476e+01	1.091098e+02
2.170000e-06	2.057620e-06	4.410844e-10	1.107388e+01	1.143459e+02
2.180000e-06	2.116766e-06	4.595406e-10	1.139220e+01	1.195008e+02
2.190000e-06	2.175710e-06	4.778964e-10	1.170942e+01	1.245768e+02
2.200000e-06	2.234463e-06	4.953921e-10	1.202563e+01	1.295766e+02
2.210000e-06	2.293072e-06	5.129898e-10	1.234105e+01	1.345029e+02
2.220000e-06	2.351433e-06	5.318814e-10	1.265514e+01	1.393585e+02
2.230000e-06	2.409457e-06	5.499789e-10	1.296742e+01	1.441464e+02
2.240000e-06	2.467016e-06	5.671417e-10	1.327720e+01	1.488696e+02
2.250000e-06	2.524078e-06	5.847784e-10	1.358430e+01	1.535308e+02
2.260000e-06	2.580903e-06	6.021282e-10	1.389013e+01	1.581328e+02
2.270000e-06	2.637513e-06	6.192106e-10	1.419479e+01	1.626784e+02
2.280000e-06	2.693911e-06	6.365411e-10	1.449832e+01	1.671699e+02
2.290000e-06	2.750079e-06	6.533591e-10	1.480061e+01	1.716097e+02
2.300000e-06	2.806044e-06	6.687697e-10	1.510181e+01	1.759997e+02
2.310000e-06	2.861852e-06	6.838027e-10	1.540216e+01	1.803416e+02
2.320000e-06	2.917479e-06	6.987089e-10	1.570154e+01	1.846371e+02
2.330000e-06	2.973006e-06	7.131691e-10	1.600038e+01	1.888872e+02
2.340000e-06	3.028435e-06	7.282220e-10	1.629869e+01	1.930931e+02
2.350000e-06	3.083668e-06	7.435776e-10	1.659595e+01	1.972554e+02
2.360000e-06	3.138713e-06	7.587690e-10	1.689219e+01	2.013745e+02
2.370000e-06	3.193630e-06	7.737654e-10	1.718775e+01	2.054507e+02
2.380000e-06	3.248288e-06	7.882194e-10	1.748191e+01	2.094842e+02
2.390000e-06	3.302616e-06	8.023424e-10	1.777430e+01	2.134746e+02
2.400000e-06	3.356742e-06	8.161184e-10	1.806560e+01	2.174218e+02
2.410000e-06	3.410714e-06	8.289637e-10	1.835607e+01	2.213253e+02
2.420000e-06	3.464476e-06	8.418199e-10	1.864541e+01	2.251847e+02
2.430000e-06	3.517943e-06	8.558651e-10	1.893317e+01	2.289992e+02
2.440000e-06	3.571150e-06	8.700472e-10	1.921952e+01	2.327683e+02
2.450000e-06	3.624169e-06	8.837740e-10	1.950486e+01	2.364913e+02
2.460000e-06	3.676917e-06	8.971734e-10	1.978875e+01	2.401676e+02
2.470000e-06	3.729438e-06	9.095709e-10	2.007141e+01	2.437964e+02
2.480000e-06	3.781646e-06	9.215168e-10	2.035239e+01	2.473771e+02
2.490000e-06	3.833470e-06	9.335650e-10	2.063130e+01	2.509093e+02
2.500000e-06	3.885031e-06	9.456706e-10	2.090879e+01	2.543923e+02
2.510000e-06	3.936317e-06	9.577689e-10	2.118481e+01	2.578257e+02
2.520000e-06	3.987329e-06	9.700158e-10	2.145935e+01	2.612091e+02
2.530000e-06	4.037967e-06	9.822111e-10	2.173188e+01	2.645421e+02
2.540000e-06	4.088082e-06	9.941378e-10	2.200159e+01	2.678246e+02
2.550000e-06	4.137843e-06	1.005659e-09	2.226940e+01	2.710562e+02
2.560000e-06	4.187252e-06	1.016445e-09	2.253531e+01	2.742369e+02
2.570000e-06	4.236177e-06	1.027153e-09	2.279862e+01	2.773665e+02
2.580000e-06	4.284640e-06	1.038310e-09	2.305944e+01	2.804450e+02
2.590000e-06	4.332744e-06	1.049766e-09	2.331834e+01	2.834722e+02
2.600000e-06	4.380589e-06	1.060980e-09	2.357583e+01	2.864481e+02
2.610000e-06	4.428100e-06	1.071519e-09	2.383153e+01	2.893728e+02
2.620000e-06	4.475332e-06	1.082164e-09	2.408572e+01	2.922461e+02
2.630000e-06	4.522341e-06	1.092920e-09	2.433872e+01	2.950680e+02
2.640000e-06	4.569095e-06	1.103165e-09	2.459035e+01	2.978385e+02
2.650000e-06	4.615457e-06	1.113388e-09	2.483986e+01	3.005574e+02
2.660000e-06	4.661420e-06	1.122966e-09	2.508723e+01	3.032246e+02
2.670000e-06	4.707112e-06	1.131163e-09	2.533314e+01	3.058401e+02
2.680000e-06	4.752478e-06	1.139708e-09	2.557729e+01	3.084037e+02
2.690000e-06	4.797558e-06	1.149128e-09	2.581991e+01	3.109152e+02
2.700000e-06	4.842350e-06	1.157812e-09	2.606098e+01	3.133745e+02
2.710000e-06	4.886798e-06	1.166246e-09	2.630019e+01	3.157815e+02
2.720000e-06	4.930925e-06	1.175351e-09	2.653767e+01	3.181361e+02
2.730000e-06	4.974727e-06	1.184011e-09	2.677341e+01	3.204383e+02
2.740000e-06	5.018299e-06	1.191557e-09	2.700791e+01	3.226880e+02
2.750000e-06	5.061639e-06	1.199293e-09	2.724116e+01	3.248853e+02
2.760000e-06	5.104663e-06	1.207435e-09	2.747271e+01	3.270304e+02
2.770000e-06	5.147180e-06	1.215567e-09	2.770153e+01	3.291236e+02
2.780000e-06	5.189157e-06	1.223382e-09	2.792745e+01	3.311652e+02
2.790000e-06	5.230690e-06	1.230857e-09	2.815098e+01	3.331559e+02
2.800000e-06	5.271574e-06	1.238525e-09	2.837101e+01	3.350963e+02
2.810000e-06	5.311875e-06	1.246417e-09	2.858791e+01	3.369872e+02
2.820000e-06	5.351877e-06	1.254717e-09	2.880319e+01	3.388296e+02
2.830000e-06	5.391614e-06	1.263176e-09	2.901705e+01	3.406248e+02
2.840000e-06	5.431112e-06	1.270512e-09	2.922963e+01	3.423741e+02
2.850000e-06	5.470397e-06	1.276963e-09	2.944105e+01	3.440789e+02
2.860000e-06	5.509343e-06	1.284534e-09	2.965065e+01	3.457410e+02
2.870000e-06	5.547801e-06	1.292071e-09	2.985763e+01	3.473622e+02
2.880000e-06	5.585826e-06	1.298204e-09	3.006228e+01	3.489445e+02
2.890000e-06	5.623517e-06	1.304415e-09	3.026513e+01	3.504899e+02
2.900000e-06	5.660814e-06	1.311203e-09	3.046586e+01	3.520007e+02
