# Temperatura_=_-26.7
# Concentracion g/m^3_=_7400.0
# C_Vs_to_Am_M_A/Vsm_=_254322799225.57578
# pendiente_HvsI_1/m_=_3716.3
# ordenada_HvsI_A/m_=_1297.0
# frecuencia_Hz_=_136109.6919249678

Tiempo_(s)	Campo_(V.s)	Magnetizacion_(V.s)	Campo_(kA/m)	Magnetizacion_(A/m)
0.000000e+00	-7.095223e-06	-1.185624e-09	-3.842355e+01	-2.987445e+02
1.000000e-08	-7.095532e-06	-1.185384e-09	-3.842522e+01	-2.986932e+02
2.000000e-08	-7.095365e-06	-1.183946e-09	-3.842432e+01	-2.986260e+02
3.000000e-08	-7.094578e-06	-1.183361e-09	-3.842005e+01	-2.985434e+02
4.000000e-08	-7.093188e-06	-1.183737e-09	-3.841253e+01	-2.984463e+02
5.000000e-08	-7.091039e-06	-1.182571e-09	-3.840089e+01	-2.983354e+02
6.000000e-08	-7.088225e-06	-1.180419e-09	-3.838565e+01	-2.982116e+02
7.000000e-08	-7.084952e-06	-1.182571e-09	-3.836793e+01	-2.980756e+02
8.000000e-08	-7.081248e-06	-1.182574e-09	-3.834787e+01	-2.979285e+02
9.000000e-08	-7.077033e-06	-1.164695e-09	-3.832504e+01	-2.977711e+02
1.000000e-07	-7.072041e-06	-1.145583e-09	-3.829801e+01	-2.976043e+02
1.100000e-07	-7.066453e-06	-1.171901e-09	-3.826775e+01	-2.974291e+02
1.200000e-07	-7.060688e-06	-1.202259e-09	-3.823652e+01	-2.972464e+02
1.300000e-07	-7.054696e-06	-1.180029e-09	-3.820408e+01	-2.970570e+02
1.400000e-07	-7.048113e-06	-1.142456e-09	-3.816843e+01	-2.968618e+02
1.500000e-07	-7.040827e-06	-1.163024e-09	-3.812897e+01	-2.966615e+02
1.600000e-07	-7.033127e-06	-1.201624e-09	-3.808727e+01	-2.964569e+02
1.700000e-07	-7.025056e-06	-1.163478e-09	-3.804357e+01	-2.962485e+02
1.800000e-07	-7.016381e-06	-1.119726e-09	-3.799659e+01	-2.960369e+02
1.900000e-07	-7.006944e-06	-1.157711e-09	-3.794548e+01	-2.958225e+02
2.000000e-07	-6.997161e-06	-1.204608e-09	-3.789250e+01	-2.956055e+02
2.100000e-07	-6.986950e-06	-1.168826e-09	-3.783721e+01	-2.953863e+02
2.200000e-07	-6.975980e-06	-1.126741e-09	-3.777780e+01	-2.951648e+02
2.300000e-07	-6.964413e-06	-1.148534e-09	-3.771516e+01	-2.949411e+02
2.400000e-07	-6.952201e-06	-1.168552e-09	-3.764903e+01	-2.947149e+02
2.500000e-07	-6.939409e-06	-1.145240e-09	-3.757975e+01	-2.944861e+02
2.600000e-07	-6.926181e-06	-1.139184e-09	-3.750811e+01	-2.942542e+02
2.700000e-07	-6.912425e-06	-1.157126e-09	-3.743362e+01	-2.940187e+02
2.800000e-07	-6.897929e-06	-1.149369e-09	-3.735512e+01	-2.937792e+02
2.900000e-07	-6.882516e-06	-1.139099e-09	-3.727165e+01	-2.935349e+02
3.000000e-07	-6.866500e-06	-1.149025e-09	-3.718492e+01	-2.932852e+02
3.100000e-07	-6.850108e-06	-1.140340e-09	-3.709615e+01	-2.930293e+02
3.200000e-07	-6.833105e-06	-1.118999e-09	-3.700407e+01	-2.927664e+02
3.300000e-07	-6.815689e-06	-1.138730e-09	-3.690976e+01	-2.924957e+02
3.400000e-07	-6.797993e-06	-1.161652e-09	-3.681393e+01	-2.922164e+02
3.500000e-07	-6.779887e-06	-1.135456e-09	-3.671587e+01	-2.919278e+02
3.600000e-07	-6.761172e-06	-1.113514e-09	-3.661452e+01	-2.916289e+02
3.700000e-07	-6.741931e-06	-1.131884e-09	-3.651032e+01	-2.913192e+02
3.800000e-07	-6.722287e-06	-1.138058e-09	-3.640395e+01	-2.909980e+02
3.900000e-07	-6.702402e-06	-1.122197e-09	-3.629626e+01	-2.906646e+02
4.000000e-07	-6.682150e-06	-1.122765e-09	-3.618659e+01	-2.903186e+02
4.100000e-07	-6.661396e-06	-1.128893e-09	-3.607420e+01	-2.899596e+02
4.200000e-07	-6.640139e-06	-1.122001e-09	-3.595908e+01	-2.895872e+02
4.300000e-07	-6.618303e-06	-1.121277e-09	-3.584083e+01	-2.892013e+02
4.400000e-07	-6.596039e-06	-1.119399e-09	-3.572026e+01	-2.888016e+02
4.500000e-07	-6.573260e-06	-1.106811e-09	-3.559690e+01	-2.883884e+02
4.600000e-07	-6.549937e-06	-1.104888e-09	-3.547060e+01	-2.879615e+02
4.700000e-07	-6.526349e-06	-1.112949e-09	-3.534286e+01	-2.875213e+02
4.800000e-07	-6.502539e-06	-1.108294e-09	-3.521392e+01	-2.870679e+02
4.900000e-07	-6.478298e-06	-1.099979e-09	-3.508265e+01	-2.866019e+02
5.000000e-07	-6.453509e-06	-1.096687e-09	-3.494840e+01	-2.861235e+02
5.100000e-07	-6.427946e-06	-1.092809e-09	-3.480997e+01	-2.856333e+02
5.200000e-07	-6.401652e-06	-1.093325e-09	-3.466758e+01	-2.851319e+02
5.300000e-07	-6.374812e-06	-1.095112e-09	-3.452223e+01	-2.846196e+02
5.400000e-07	-6.347433e-06	-1.089250e-09	-3.437396e+01	-2.840972e+02
5.500000e-07	-6.319647e-06	-1.086857e-09	-3.422348e+01	-2.835651e+02
5.600000e-07	-6.291613e-06	-1.088545e-09	-3.407167e+01	-2.830238e+02
5.700000e-07	-6.263151e-06	-1.081499e-09	-3.391754e+01	-2.824739e+02
5.800000e-07	-6.234119e-06	-1.075776e-09	-3.376032e+01	-2.819156e+02
5.900000e-07	-6.204744e-06	-1.078208e-09	-3.360124e+01	-2.813494e+02
6.000000e-07	-6.175073e-06	-1.075591e-09	-3.344056e+01	-2.807755e+02
6.100000e-07	-6.145004e-06	-1.071865e-09	-3.327772e+01	-2.801941e+02
6.200000e-07	-6.114459e-06	-1.075387e-09	-3.311231e+01	-2.796052e+02
6.300000e-07	-6.083347e-06	-1.071640e-09	-3.294382e+01	-2.790088e+02
6.400000e-07	-6.051904e-06	-1.061828e-09	-3.277355e+01	-2.784047e+02
6.500000e-07	-6.020262e-06	-1.061398e-09	-3.260219e+01	-2.777925e+02
6.600000e-07	-5.988334e-06	-1.063383e-09	-3.242929e+01	-2.771720e+02
6.700000e-07	-5.956132e-06	-1.058557e-09	-3.225490e+01	-2.765426e+02
6.800000e-07	-5.923443e-06	-1.057187e-09	-3.207788e+01	-2.759036e+02
6.900000e-07	-5.890005e-06	-1.055857e-09	-3.189680e+01	-2.752544e+02
7.000000e-07	-5.855770e-06	-1.048186e-09	-3.171140e+01	-2.745942e+02
7.100000e-07	-5.820800e-06	-1.043405e-09	-3.152203e+01	-2.739220e+02
7.200000e-07	-5.785392e-06	-1.043499e-09	-3.133028e+01	-2.732370e+02
7.300000e-07	-5.749796e-06	-1.039495e-09	-3.113751e+01	-2.725382e+02
7.400000e-07	-5.714005e-06	-1.035418e-09	-3.094368e+01	-2.718246e+02
7.500000e-07	-5.677936e-06	-1.035439e-09	-3.074836e+01	-2.710951e+02
7.600000e-07	-5.641435e-06	-1.034425e-09	-3.055069e+01	-2.703487e+02
7.700000e-07	-5.604505e-06	-1.030605e-09	-3.035070e+01	-2.695844e+02
7.800000e-07	-5.567157e-06	-1.025954e-09	-3.014845e+01	-2.688013e+02
7.900000e-07	-5.529459e-06	-1.020091e-09	-2.994429e+01	-2.679984e+02
8.000000e-07	-5.491291e-06	-1.015877e-09	-2.973760e+01	-2.671749e+02
8.100000e-07	-5.452629e-06	-1.014475e-09	-2.952823e+01	-2.663300e+02
8.200000e-07	-5.413571e-06	-1.011644e-09	-2.931671e+01	-2.654629e+02
8.300000e-07	-5.374215e-06	-1.006245e-09	-2.910358e+01	-2.645731e+02
8.400000e-07	-5.334567e-06	-1.000461e-09	-2.888887e+01	-2.636601e+02
8.500000e-07	-5.294704e-06	-9.966187e-10	-2.867300e+01	-2.627234e+02
8.600000e-07	-5.254657e-06	-9.935040e-10	-2.845613e+01	-2.617628e+02
8.700000e-07	-5.214143e-06	-9.889290e-10	-2.823673e+01	-2.607780e+02
8.800000e-07	-5.173269e-06	-9.831554e-10	-2.801538e+01	-2.597690e+02
8.900000e-07	-5.131992e-06	-9.779112e-10	-2.779184e+01	-2.587357e+02
9.000000e-07	-5.089983e-06	-9.734796e-10	-2.756435e+01	-2.576782e+02
9.100000e-07	-5.047216e-06	-9.692928e-10	-2.733275e+01	-2.565967e+02
9.200000e-07	-5.004008e-06	-9.638481e-10	-2.709876e+01	-2.554915e+02
9.300000e-07	-4.960472e-06	-9.580228e-10	-2.686299e+01	-2.543627e+02
9.400000e-07	-4.916637e-06	-9.527113e-10	-2.662561e+01	-2.532107e+02
9.500000e-07	-4.872649e-06	-9.483356e-10	-2.638739e+01	-2.520359e+02
9.600000e-07	-4.828440e-06	-9.433240e-10	-2.614798e+01	-2.508387e+02
9.700000e-07	-4.783805e-06	-9.366121e-10	-2.590627e+01	-2.496193e+02
9.800000e-07	-4.738727e-06	-9.295772e-10	-2.566215e+01	-2.483783e+02
9.900000e-07	-4.693339e-06	-9.247455e-10	-2.541636e+01	-2.471159e+02
1.000000e-06	-4.647618e-06	-9.207789e-10	-2.516876e+01	-2.458324e+02
1.010000e-06	-4.601530e-06	-9.159732e-10	-2.491918e+01	-2.445281e+02
1.020000e-06	-4.555099e-06	-9.098073e-10	-2.466773e+01	-2.432032e+02
1.030000e-06	-4.508398e-06	-9.029053e-10	-2.441483e+01	-2.418578e+02
1.040000e-06	-4.461503e-06	-8.976723e-10	-2.416087e+01	-2.404921e+02
1.050000e-06	-4.414261e-06	-8.927637e-10	-2.390504e+01	-2.391060e+02
1.060000e-06	-4.366666e-06	-8.861400e-10	-2.364729e+01	-2.376994e+02
1.070000e-06	-4.318927e-06	-8.792465e-10	-2.338876e+01	-2.362723e+02
1.080000e-06	-4.271006e-06	-8.723546e-10	-2.312925e+01	-2.348243e+02
1.090000e-06	-4.222787e-06	-8.654606e-10	-2.286813e+01	-2.333553e+02
1.100000e-06	-4.174258e-06	-8.593862e-10	-2.260532e+01	-2.318649e+02
1.110000e-06	-4.125332e-06	-8.531976e-10	-2.234037e+01	-2.303527e+02
1.120000e-06	-4.075922e-06	-8.464515e-10	-2.207279e+01	-2.288183e+02
1.130000e-06	-4.025929e-06	-8.397104e-10	-2.180206e+01	-2.272611e+02
1.140000e-06	-3.975426e-06	-8.329394e-10	-2.152857e+01	-2.256807e+02
1.150000e-06	-3.924577e-06	-8.262115e-10	-2.125320e+01	-2.240765e+02
1.160000e-06	-3.873417e-06	-8.201335e-10	-2.097614e+01	-2.224481e+02
1.170000e-06	-3.822026e-06	-8.142583e-10	-2.069784e+01	-2.207949e+02
1.180000e-06	-3.770343e-06	-8.083855e-10	-2.041796e+01	-2.191164e+02
1.190000e-06	-3.718386e-06	-8.019622e-10	-2.013659e+01	-2.174121e+02
1.200000e-06	-3.666217e-06	-7.949320e-10	-1.985407e+01	-2.156816e+02
1.210000e-06	-3.613688e-06	-7.880937e-10	-1.956960e+01	-2.139245e+02
1.220000e-06	-3.560822e-06	-7.820855e-10	-1.928331e+01	-2.121404e+02
1.230000e-06	-3.507624e-06	-7.757931e-10	-1.899522e+01	-2.103291e+02
1.240000e-06	-3.454147e-06	-7.684205e-10	-1.870562e+01	-2.084902e+02
1.250000e-06	-3.400585e-06	-7.601123e-10	-1.841557e+01	-2.066237e+02
1.260000e-06	-3.346780e-06	-7.517629e-10	-1.812419e+01	-2.047294e+02
1.270000e-06	-3.292715e-06	-7.434779e-10	-1.783140e+01	-2.028073e+02
1.280000e-06	-3.238460e-06	-7.358763e-10	-1.753759e+01	-2.008574e+02
1.290000e-06	-3.183998e-06	-7.293465e-10	-1.724266e+01	-1.988797e+02
1.300000e-06	-3.129217e-06	-7.230567e-10	-1.694600e+01	-1.968744e+02
1.310000e-06	-3.074123e-06	-7.172392e-10	-1.664764e+01	-1.948417e+02
1.320000e-06	-3.018788e-06	-7.102423e-10	-1.634798e+01	-1.927816e+02
1.330000e-06	-2.963244e-06	-7.000432e-10	-1.604718e+01	-1.906946e+02
1.340000e-06	-2.907637e-06	-6.895468e-10	-1.574605e+01	-1.885807e+02
1.350000e-06	-2.851997e-06	-6.822270e-10	-1.544473e+01	-1.864403e+02
1.360000e-06	-2.796187e-06	-6.760334e-10	-1.514250e+01	-1.842736e+02
1.370000e-06	-2.740243e-06	-6.689520e-10	-1.483954e+01	-1.820808e+02
1.380000e-06	-2.684288e-06	-6.613973e-10	-1.453653e+01	-1.798623e+02
1.390000e-06	-2.628175e-06	-6.536320e-10	-1.423265e+01	-1.776181e+02
1.400000e-06	-2.571898e-06	-6.449689e-10	-1.392788e+01	-1.753486e+02
1.410000e-06	-2.515536e-06	-6.350321e-10	-1.362266e+01	-1.730537e+02
1.420000e-06	-2.458799e-06	-6.248459e-10	-1.331541e+01	-1.707335e+02
1.430000e-06	-2.401684e-06	-6.159087e-10	-1.300611e+01	-1.683882e+02
1.440000e-06	-2.344500e-06	-6.081027e-10	-1.269643e+01	-1.660177e+02
1.450000e-06	-2.287192e-06	-5.998877e-10	-1.238608e+01	-1.636219e+02
1.460000e-06	-2.229380e-06	-5.904385e-10	-1.207301e+01	-1.612007e+02
1.470000e-06	-2.171099e-06	-5.800772e-10	-1.175740e+01	-1.587539e+02
1.480000e-06	-2.112596e-06	-5.703916e-10	-1.144058e+01	-1.562813e+02
1.490000e-06	-2.053803e-06	-5.611536e-10	-1.112219e+01	-1.537825e+02
1.500000e-06	-1.994712e-06	-5.509585e-10	-1.080218e+01	-1.512573e+02
1.510000e-06	-1.935416e-06	-5.405957e-10	-1.048107e+01	-1.487053e+02
1.520000e-06	-1.876117e-06	-5.304683e-10	-1.015995e+01	-1.461260e+02
1.530000e-06	-1.816767e-06	-5.204899e-10	-9.838541e+00	-1.435191e+02
1.540000e-06	-1.757276e-06	-5.100127e-10	-9.516370e+00	-1.408840e+02
1.550000e-06	-1.697782e-06	-4.990389e-10	-9.194187e+00	-1.382203e+02
1.560000e-06	-1.638248e-06	-4.886745e-10	-8.871784e+00	-1.355276e+02
1.570000e-06	-1.578636e-06	-4.788750e-10	-8.548965e+00	-1.328053e+02
1.580000e-06	-1.518910e-06	-4.690381e-10	-8.225521e+00	-1.300530e+02
1.590000e-06	-1.459056e-06	-4.585515e-10	-7.901388e+00	-1.272702e+02
1.600000e-06	-1.399181e-06	-4.474975e-10	-7.577141e+00	-1.244565e+02
1.610000e-06	-1.339265e-06	-4.367733e-10	-7.252668e+00	-1.216114e+02
1.620000e-06	-1.279350e-06	-4.266970e-10	-6.928207e+00	-1.187347e+02
1.630000e-06	-1.219402e-06	-4.164347e-10	-6.603562e+00	-1.158259e+02
1.640000e-06	-1.159318e-06	-4.052165e-10	-6.278183e+00	-1.128848e+02
1.650000e-06	-1.099140e-06	-3.928280e-10	-5.952294e+00	-1.099111e+02
1.660000e-06	-1.038936e-06	-3.806546e-10	-5.626267e+00	-1.069045e+02
1.670000e-06	-9.788129e-07	-3.697133e-10	-5.300674e+00	-1.038648e+02
1.680000e-06	-9.186146e-07	-3.585545e-10	-4.974675e+00	-1.007920e+02
1.690000e-06	-8.582355e-07	-3.464460e-10	-4.647698e+00	-9.768587e+01
1.700000e-06	-7.978235e-07	-3.338267e-10	-4.320542e+00	-9.454637e+01
1.710000e-06	-7.374340e-07	-3.212954e-10	-3.993508e+00	-9.137349e+01
1.720000e-06	-6.769230e-07	-3.101037e-10	-3.665816e+00	-8.816724e+01
1.730000e-06	-6.162806e-07	-2.994172e-10	-3.337413e+00	-8.492767e+01
1.740000e-06	-5.555982e-07	-2.876908e-10	-3.008793e+00	-8.165487e+01
1.750000e-06	-4.948594e-07	-2.744763e-10	-2.679867e+00	-7.834898e+01
1.760000e-06	-4.340253e-07	-2.604826e-10	-2.350425e+00	-7.501014e+01
1.770000e-06	-3.732525e-07	-2.473386e-10	-2.021316e+00	-7.163858e+01
1.780000e-06	-3.125353e-07	-2.344071e-10	-1.692507e+00	-6.823453e+01
1.790000e-06	-2.516672e-07	-2.209804e-10	-1.362881e+00	-6.479828e+01
1.800000e-06	-1.907738e-07	-2.082871e-10	-1.033118e+00	-6.133015e+01
1.810000e-06	-1.299206e-07	-1.964650e-10	-7.035732e-01	-5.783054e+01
1.820000e-06	-6.901250e-08	-1.845035e-10	-3.737310e-01	-5.429986e+01
1.830000e-06	-8.054805e-09	-1.723594e-10	-4.362008e-02	-5.073860e+01
1.840000e-06	5.282231e-08	-1.598848e-10	2.860545e-01	-4.714733e+01
1.850000e-06	1.136249e-07	-1.469578e-10	6.153257e-01	-4.352665e+01
1.860000e-06	1.744707e-07	-1.334919e-10	9.448304e-01	-3.987726e+01
1.870000e-06	2.353991e-07	-1.193344e-10	1.274783e+00	-3.619995e+01
1.880000e-06	2.963377e-07	-1.051648e-10	1.604791e+00	-3.249556e+01
1.890000e-06	3.571925e-07	-9.181315e-11	1.934344e+00	-2.876508e+01
1.900000e-06	4.179279e-07	-7.957441e-11	2.263251e+00	-2.500955e+01
1.910000e-06	4.787036e-07	-6.706543e-11	2.592377e+00	-2.123015e+01
1.920000e-06	5.394828e-07	-5.351934e-11	2.921521e+00	-1.742814e+01
1.930000e-06	6.002639e-07	-3.993575e-11	3.250676e+00	-1.360494e+01
1.940000e-06	6.609656e-07	-2.631589e-11	3.579400e+00	-9.762039e+00
1.950000e-06	7.214433e-07	-1.244691e-11	3.906912e+00	-5.901072e+00
1.960000e-06	7.819376e-07	1.076037e-12	4.234514e+00	-2.023786e+00
1.970000e-06	8.424333e-07	1.422333e-11	4.562122e+00	1.867958e+00
1.980000e-06	9.027726e-07	2.741099e-11	4.888884e+00	5.772184e+00
1.990000e-06	9.630230e-07	4.058426e-11	5.215165e+00	9.686809e+00
2.000000e-06	1.023288e-06	5.351799e-11	5.541527e+00	1.360965e+01
2.010000e-06	1.083463e-06	6.690556e-11	5.867397e+00	1.753843e+01
2.020000e-06	1.143624e-06	8.052752e-11	6.193196e+00	2.147078e+01
2.030000e-06	1.203765e-06	9.344401e-11	6.518882e+00	2.540429e+01
2.040000e-06	1.263774e-06	1.066830e-10	6.843855e+00	2.933646e+01
2.050000e-06	1.323725e-06	1.212034e-10	7.168517e+00	3.326476e+01
2.060000e-06	1.383557e-06	1.362083e-10	7.492528e+00	3.718663e+01
2.070000e-06	1.443269e-06	1.505388e-10	7.815892e+00	4.109951e+01
2.080000e-06	1.502917e-06	1.642078e-10	8.138912e+00	4.500082e+01
2.090000e-06	1.562587e-06	1.780179e-10	8.462051e+00	4.888803e+01
2.100000e-06	1.622189e-06	1.921314e-10	8.784818e+00	5.275862e+01
2.110000e-06	1.681678e-06	2.061130e-10	9.106980e+00	5.661015e+01
2.120000e-06	1.741156e-06	2.196940e-10	9.429075e+00	6.044024e+01
2.130000e-06	1.800574e-06	2.331435e-10	9.750848e+00	6.424659e+01
2.140000e-06	1.859897e-06	2.472532e-10	1.007210e+01	6.802703e+01
2.150000e-06	1.919105e-06	2.620599e-10	1.039274e+01	7.177946e+01
2.160000e-06	1.978227e-06	2.757713e-10	1.071291e+01	7.550195e+01
2.170000e-06	2.037119e-06	2.880036e-10	1.103184e+01	7.919268e+01
2.180000e-06	2.095605e-06	3.010631e-10	1.134856e+01	8.284999e+01
2.190000e-06	2.154001e-06	3.148674e-10	1.166480e+01	8.647237e+01
2.200000e-06	2.212255e-06	3.282811e-10	1.198027e+01	9.005845e+01
2.210000e-06	2.270116e-06	3.416613e-10	1.229361e+01	9.360704e+01
2.220000e-06	2.327643e-06	3.546086e-10	1.260514e+01	9.711709e+01
2.230000e-06	2.384655e-06	3.667205e-10	1.291389e+01	1.005877e+02
2.240000e-06	2.441338e-06	3.793076e-10	1.322085e+01	1.040183e+02
2.250000e-06	2.498039e-06	3.928002e-10	1.352791e+01	1.074081e+02
2.260000e-06	2.554523e-06	4.054897e-10	1.383379e+01	1.107567e+02
2.270000e-06	2.610754e-06	4.185375e-10	1.413831e+01	1.140639e+02
2.280000e-06	2.666822e-06	4.328556e-10	1.444194e+01	1.173296e+02
2.290000e-06	2.722710e-06	4.461114e-10	1.474459e+01	1.205536e+02
2.300000e-06	2.778470e-06	4.579370e-10	1.504656e+01	1.237360e+02
2.310000e-06	2.834079e-06	4.691346e-10	1.534770e+01	1.268769e+02
2.320000e-06	2.889579e-06	4.797691e-10	1.564826e+01	1.299767e+02
2.330000e-06	2.945034e-06	4.907127e-10	1.594857e+01	1.330356e+02
2.340000e-06	3.000363e-06	5.023989e-10	1.624820e+01	1.360539e+02
2.350000e-06	3.055399e-06	5.135564e-10	1.654624e+01	1.390322e+02
2.360000e-06	3.110226e-06	5.239412e-10	1.684315e+01	1.419708e+02
2.370000e-06	3.164806e-06	5.342339e-10	1.713873e+01	1.448703e+02
2.380000e-06	3.219267e-06	5.445123e-10	1.743366e+01	1.477312e+02
2.390000e-06	3.273484e-06	5.549278e-10	1.772726e+01	1.505539e+02
2.400000e-06	3.327425e-06	5.654734e-10	1.801937e+01	1.533391e+02
2.410000e-06	3.381283e-06	5.756656e-10	1.831103e+01	1.560872e+02
2.420000e-06	3.434879e-06	5.852731e-10	1.860128e+01	1.587989e+02
2.430000e-06	3.488143e-06	5.952764e-10	1.888973e+01	1.614745e+02
2.440000e-06	3.541171e-06	6.057154e-10	1.917690e+01	1.641147e+02
2.450000e-06	3.593961e-06	6.155160e-10	1.946278e+01	1.667198e+02
2.460000e-06	3.646385e-06	6.248098e-10	1.974667e+01	1.692905e+02
2.470000e-06	3.698491e-06	6.339976e-10	2.002885e+01	1.718271e+02
2.480000e-06	3.750330e-06	6.435221e-10	2.030958e+01	1.743302e+02
2.490000e-06	3.801837e-06	6.522384e-10	2.058851e+01	1.768001e+02
2.500000e-06	3.852980e-06	6.593319e-10	2.086547e+01	1.792374e+02
2.510000e-06	3.903801e-06	6.664066e-10	2.114069e+01	1.816423e+02
2.520000e-06	3.954246e-06	6.749321e-10	2.141387e+01	1.840155e+02
2.530000e-06	4.004199e-06	6.836707e-10	2.168438e+01	1.863571e+02
2.540000e-06	4.053672e-06	6.916600e-10	2.195230e+01	1.886678e+02
2.550000e-06	4.102843e-06	7.001076e-10	2.221858e+01	1.909477e+02
2.560000e-06	4.151771e-06	7.081110e-10	2.248354e+01	1.931975e+02
2.570000e-06	4.200363e-06	7.153892e-10	2.274669e+01	1.954173e+02
2.580000e-06	4.248573e-06	7.230546e-10	2.300777e+01	1.976077e+02
2.590000e-06	4.296402e-06	7.311343e-10	2.326678e+01	1.997689e+02
2.600000e-06	4.343997e-06	7.391314e-10	2.352453e+01	2.019014e+02
2.610000e-06	4.391456e-06	7.470037e-10	2.378154e+01	2.040054e+02
2.620000e-06	4.438764e-06	7.551291e-10	2.403773e+01	2.060812e+02
2.630000e-06	4.485746e-06	7.627378e-10	2.429216e+01	2.081293e+02
2.640000e-06	4.532248e-06	7.698806e-10	2.454398e+01	2.101498e+02
2.650000e-06	4.578360e-06	7.772656e-10	2.479370e+01	2.121430e+02
2.660000e-06	4.624008e-06	7.847281e-10	2.504090e+01	2.141092e+02
2.670000e-06	4.669403e-06	7.913325e-10	2.528674e+01	2.160484e+02
2.680000e-06	4.714608e-06	7.970110e-10	2.553154e+01	2.179609e+02
2.690000e-06	4.759350e-06	8.031986e-10	2.577384e+01	2.198467e+02
2.700000e-06	4.803751e-06	8.100829e-10	2.601429e+01	2.217059e+02
2.710000e-06	4.847817e-06	8.171743e-10	2.625292e+01	2.235385e+02
2.720000e-06	4.891649e-06	8.240923e-10	2.649029e+01	2.253445e+02
2.730000e-06	4.935413e-06	8.304845e-10	2.672729e+01	2.271237e+02
2.740000e-06	4.979007e-06	8.366617e-10	2.696337e+01	2.288761e+02
2.750000e-06	5.022297e-06	8.431920e-10	2.719780e+01	2.306015e+02
2.760000e-06	5.065222e-06	8.494315e-10	2.743026e+01	2.322997e+02
2.770000e-06	5.107781e-06	8.550672e-10	2.766073e+01	2.339705e+02
2.780000e-06	5.149647e-06	8.608861e-10	2.788746e+01	2.356135e+02
2.790000e-06	5.190703e-06	8.674473e-10	2.810979e+01	2.372286e+02
2.800000e-06	5.231232e-06	8.742506e-10	2.832927e+01	2.388154e+02
2.810000e-06	5.271392e-06	8.810913e-10	2.854675e+01	2.403737e+02
2.820000e-06	5.311234e-06	8.877145e-10	2.876252e+01	2.419031e+02
2.830000e-06	5.350849e-06	8.937426e-10	2.897705e+01	2.434034e+02
2.840000e-06	5.390320e-06	9.005584e-10	2.919080e+01	2.448744e+02
2.850000e-06	5.429475e-06	9.080471e-10	2.940284e+01	2.463159e+02
2.860000e-06	5.468152e-06	9.146204e-10	2.961229e+01	2.477276e+02
2.870000e-06	5.506356e-06	9.196027e-10	2.981918e+01	2.491095e+02
2.880000e-06	5.544108e-06	9.238174e-10	3.002363e+01	2.504616e+02
2.890000e-06	5.581541e-06	9.288805e-10	3.022634e+01	2.517839e+02
2.900000e-06	5.618537e-06	9.344564e-10	3.042669e+01	2.530764e+02
