# Temperatura_=_8.0
# Concentracion g/m^3_=_7400.0
# C_Vs_to_Am_M_A/Vsm_=_254322799225.57578
# pendiente_HvsI_1/m_=_3716.3
# ordenada_HvsI_A/m_=_1297.0
# frecuencia_Hz_=_136107.86947437582

Tiempo_(s)	Campo_(V.s)	Magnetizacion_(V.s)	Campo_(kA/m)	Magnetizacion_(A/m)
0.000000e+00	-7.138014e-06	-1.519759e-09	-3.842311e+01	-3.797933e+02
1.000000e-08	-7.138109e-06	-1.518921e-09	-3.842361e+01	-3.797180e+02
2.000000e-08	-7.137836e-06	-1.516883e-09	-3.842215e+01	-3.796272e+02
3.000000e-08	-7.137044e-06	-1.515157e-09	-3.841788e+01	-3.795222e+02
4.000000e-08	-7.135561e-06	-1.513840e-09	-3.840990e+01	-3.794047e+02
5.000000e-08	-7.133329e-06	-1.512557e-09	-3.839789e+01	-3.792760e+02
6.000000e-08	-7.130431e-06	-1.511237e-09	-3.838228e+01	-3.791376e+02
7.000000e-08	-7.126928e-06	-1.512604e-09	-3.836343e+01	-3.789909e+02
8.000000e-08	-7.122965e-06	-1.520402e-09	-3.834210e+01	-3.788373e+02
9.000000e-08	-7.118413e-06	-1.509055e-09	-3.831759e+01	-3.786782e+02
1.000000e-07	-7.113113e-06	-1.464967e-09	-3.828906e+01	-3.785148e+02
1.100000e-07	-7.107212e-06	-1.474529e-09	-3.825730e+01	-3.783481e+02
1.200000e-07	-7.101124e-06	-1.546351e-09	-3.822453e+01	-3.781791e+02
1.300000e-07	-7.094790e-06	-1.543808e-09	-3.819043e+01	-3.780088e+02
1.400000e-07	-7.087959e-06	-1.448969e-09	-3.815367e+01	-3.778377e+02
1.500000e-07	-7.080577e-06	-1.448689e-09	-3.811393e+01	-3.776665e+02
1.600000e-07	-7.072747e-06	-1.558156e-09	-3.807178e+01	-3.774954e+02
1.700000e-07	-7.064563e-06	-1.537154e-09	-3.802773e+01	-3.773248e+02
1.800000e-07	-7.055879e-06	-1.406281e-09	-3.798098e+01	-3.771546e+02
1.900000e-07	-7.046248e-06	-1.433140e-09	-3.792914e+01	-3.769846e+02
2.000000e-07	-7.035999e-06	-1.576159e-09	-3.787397e+01	-3.768146e+02
2.100000e-07	-7.025592e-06	-1.536818e-09	-3.781795e+01	-3.766441e+02
2.200000e-07	-7.014479e-06	-1.401960e-09	-3.775813e+01	-3.764725e+02
2.300000e-07	-7.002569e-06	-1.445631e-09	-3.769402e+01	-3.762990e+02
2.400000e-07	-6.990127e-06	-1.546957e-09	-3.762704e+01	-3.761228e+02
2.500000e-07	-6.977256e-06	-1.478076e-09	-3.755776e+01	-3.759429e+02
2.600000e-07	-6.963598e-06	-1.412580e-09	-3.748424e+01	-3.757581e+02
2.700000e-07	-6.949371e-06	-1.495335e-09	-3.740766e+01	-3.755675e+02
2.800000e-07	-6.934522e-06	-1.516969e-09	-3.732773e+01	-3.753698e+02
2.900000e-07	-6.918832e-06	-1.433163e-09	-3.724327e+01	-3.751638e+02
3.000000e-07	-6.902538e-06	-1.449801e-09	-3.715556e+01	-3.749483e+02
3.100000e-07	-6.885978e-06	-1.509850e-09	-3.706642e+01	-3.747222e+02
3.200000e-07	-6.869025e-06	-1.436528e-09	-3.697517e+01	-3.744842e+02
3.300000e-07	-6.851493e-06	-1.406190e-09	-3.688079e+01	-3.742334e+02
3.400000e-07	-6.833554e-06	-1.509445e-09	-3.678423e+01	-3.739687e+02
3.500000e-07	-6.815138e-06	-1.502285e-09	-3.668510e+01	-3.736891e+02
3.600000e-07	-6.796204e-06	-1.387575e-09	-3.658318e+01	-3.733938e+02
3.700000e-07	-6.776687e-06	-1.425322e-09	-3.647812e+01	-3.730821e+02
3.800000e-07	-6.756784e-06	-1.507989e-09	-3.637099e+01	-3.727534e+02
3.900000e-07	-6.736633e-06	-1.434198e-09	-3.626252e+01	-3.724071e+02
4.000000e-07	-6.716161e-06	-1.389482e-09	-3.615232e+01	-3.720429e+02
4.100000e-07	-6.695155e-06	-1.469718e-09	-3.603924e+01	-3.716606e+02
4.200000e-07	-6.673670e-06	-1.463200e-09	-3.592359e+01	-3.712599e+02
4.300000e-07	-6.651631e-06	-1.397084e-09	-3.580496e+01	-3.708409e+02
4.400000e-07	-6.629121e-06	-1.435795e-09	-3.568379e+01	-3.704037e+02
4.500000e-07	-6.606205e-06	-1.456129e-09	-3.556044e+01	-3.699485e+02
4.600000e-07	-6.582826e-06	-1.390083e-09	-3.543459e+01	-3.694754e+02
4.700000e-07	-6.559157e-06	-1.404711e-09	-3.530719e+01	-3.689849e+02
4.800000e-07	-6.535182e-06	-1.459992e-09	-3.517813e+01	-3.684773e+02
4.900000e-07	-6.510729e-06	-1.411509e-09	-3.504650e+01	-3.679530e+02
5.000000e-07	-6.485601e-06	-1.377520e-09	-3.491124e+01	-3.674126e+02
5.100000e-07	-6.459602e-06	-1.426638e-09	-3.477129e+01	-3.668564e+02
5.200000e-07	-6.432853e-06	-1.421738e-09	-3.462730e+01	-3.662850e+02
5.300000e-07	-6.405567e-06	-1.381543e-09	-3.448043e+01	-3.656987e+02
5.400000e-07	-6.377909e-06	-1.408347e-09	-3.433155e+01	-3.650981e+02
5.500000e-07	-6.349990e-06	-1.420820e-09	-3.418126e+01	-3.644833e+02
5.600000e-07	-6.321721e-06	-1.384041e-09	-3.402909e+01	-3.638549e+02
5.700000e-07	-6.293020e-06	-1.388002e-09	-3.387460e+01	-3.632129e+02
5.800000e-07	-6.263842e-06	-1.406925e-09	-3.371754e+01	-3.625575e+02
5.900000e-07	-6.234318e-06	-1.381905e-09	-3.355861e+01	-3.618889e+02
6.000000e-07	-6.204437e-06	-1.372875e-09	-3.339777e+01	-3.612070e+02
6.100000e-07	-6.173970e-06	-1.392670e-09	-3.323377e+01	-3.605118e+02
6.200000e-07	-6.142949e-06	-1.385219e-09	-3.306679e+01	-3.598030e+02
6.300000e-07	-6.111622e-06	-1.369191e-09	-3.289815e+01	-3.590805e+02
6.400000e-07	-6.080045e-06	-1.374146e-09	-3.272818e+01	-3.583440e+02
6.500000e-07	-6.048241e-06	-1.370181e-09	-3.255698e+01	-3.575929e+02
6.600000e-07	-6.016163e-06	-1.357717e-09	-3.238431e+01	-3.568269e+02
6.700000e-07	-5.983566e-06	-1.361326e-09	-3.220884e+01	-3.560455e+02
6.800000e-07	-5.950118e-06	-1.364747e-09	-3.202880e+01	-3.552481e+02
6.900000e-07	-5.915915e-06	-1.353463e-09	-3.184468e+01	-3.544341e+02
7.000000e-07	-5.881200e-06	-1.345300e-09	-3.165782e+01	-3.536030e+02
7.100000e-07	-5.845950e-06	-1.344079e-09	-3.146807e+01	-3.527540e+02
7.200000e-07	-5.810278e-06	-1.340528e-09	-3.127605e+01	-3.518866e+02
7.300000e-07	-5.774412e-06	-1.335422e-09	-3.108299e+01	-3.510002e+02
7.400000e-07	-5.738417e-06	-1.330879e-09	-3.088924e+01	-3.500941e+02
7.500000e-07	-5.702065e-06	-1.326140e-09	-3.069356e+01	-3.491679e+02
7.600000e-07	-5.665173e-06	-1.323069e-09	-3.049497e+01	-3.482210e+02
7.700000e-07	-5.627785e-06	-1.320018e-09	-3.029372e+01	-3.472530e+02
7.800000e-07	-5.589903e-06	-1.313017e-09	-3.008980e+01	-3.462634e+02
7.900000e-07	-5.551748e-06	-1.305734e-09	-2.988442e+01	-3.452518e+02
8.000000e-07	-5.513223e-06	-1.301939e-09	-2.967704e+01	-3.442181e+02
8.100000e-07	-5.474095e-06	-1.299642e-09	-2.946642e+01	-3.431619e+02
8.200000e-07	-5.434631e-06	-1.295283e-09	-2.925399e+01	-3.420831e+02
8.300000e-07	-5.395022e-06	-1.288869e-09	-2.904078e+01	-3.409816e+02
8.400000e-07	-5.355196e-06	-1.281336e-09	-2.882640e+01	-3.398574e+02
8.500000e-07	-5.315107e-06	-1.275269e-09	-2.861061e+01	-3.387104e+02
8.600000e-07	-5.274538e-06	-1.271234e-09	-2.839223e+01	-3.375408e+02
8.700000e-07	-5.233493e-06	-1.266703e-09	-2.817129e+01	-3.363487e+02
8.800000e-07	-5.192023e-06	-1.260342e-09	-2.794806e+01	-3.351343e+02
8.900000e-07	-5.149871e-06	-1.254046e-09	-2.772116e+01	-3.338978e+02
9.000000e-07	-5.107095e-06	-1.248825e-09	-2.749090e+01	-3.326393e+02
9.100000e-07	-5.063817e-06	-1.244851e-09	-2.725794e+01	-3.313593e+02
9.200000e-07	-5.020218e-06	-1.239090e-09	-2.702326e+01	-3.300578e+02
9.300000e-07	-4.976443e-06	-1.230564e-09	-2.678762e+01	-3.287353e+02
9.400000e-07	-4.932423e-06	-1.223079e-09	-2.655066e+01	-3.273920e+02
9.500000e-07	-4.888091e-06	-1.216893e-09	-2.631203e+01	-3.260281e+02
9.600000e-07	-4.843427e-06	-1.210093e-09	-2.607161e+01	-3.246440e+02
9.700000e-07	-4.798384e-06	-1.202937e-09	-2.582915e+01	-3.232398e+02
9.800000e-07	-4.753061e-06	-1.195580e-09	-2.558518e+01	-3.218158e+02
9.900000e-07	-4.707409e-06	-1.189215e-09	-2.533944e+01	-3.203720e+02
1.000000e-06	-4.661376e-06	-1.183407e-09	-2.509165e+01	-3.189087e+02
1.010000e-06	-4.615089e-06	-1.177645e-09	-2.484249e+01	-3.174259e+02
1.020000e-06	-4.568528e-06	-1.170494e-09	-2.459186e+01	-3.159237e+02
1.030000e-06	-4.521358e-06	-1.162616e-09	-2.433795e+01	-3.144021e+02
1.040000e-06	-4.473802e-06	-1.156666e-09	-2.408196e+01	-3.128609e+02
1.050000e-06	-4.426213e-06	-1.151424e-09	-2.382580e+01	-3.113001e+02
1.060000e-06	-4.378379e-06	-1.144632e-09	-2.356831e+01	-3.097195e+02
1.070000e-06	-4.330215e-06	-1.136264e-09	-2.330904e+01	-3.081190e+02
1.080000e-06	-4.281882e-06	-1.128860e-09	-2.304888e+01	-3.064982e+02
1.090000e-06	-4.233095e-06	-1.122609e-09	-2.278626e+01	-3.048567e+02
1.100000e-06	-4.183915e-06	-1.116140e-09	-2.252153e+01	-3.031944e+02
1.110000e-06	-4.134446e-06	-1.108787e-09	-2.225524e+01	-3.015106e+02
1.120000e-06	-4.084244e-06	-1.100939e-09	-2.198501e+01	-2.998050e+02
1.130000e-06	-4.033534e-06	-1.093277e-09	-2.171205e+01	-2.980771e+02
1.140000e-06	-3.982578e-06	-1.085880e-09	-2.143776e+01	-2.963262e+02
1.150000e-06	-3.931292e-06	-1.078703e-09	-2.116169e+01	-2.945518e+02
1.160000e-06	-3.879686e-06	-1.071112e-09	-2.088390e+01	-2.927533e+02
1.170000e-06	-3.827831e-06	-1.063311e-09	-2.060477e+01	-2.909299e+02
1.180000e-06	-3.775655e-06	-1.056606e-09	-2.032391e+01	-2.890811e+02
1.190000e-06	-3.723111e-06	-1.049947e-09	-2.004108e+01	-2.872060e+02
1.200000e-06	-3.670236e-06	-1.042661e-09	-1.975645e+01	-2.853040e+02
1.210000e-06	-3.617193e-06	-1.035077e-09	-1.947093e+01	-2.833742e+02
1.220000e-06	-3.563953e-06	-1.027613e-09	-1.918435e+01	-2.814159e+02
1.230000e-06	-3.510399e-06	-1.020294e-09	-1.889607e+01	-2.794283e+02
1.240000e-06	-3.456633e-06	-1.012904e-09	-1.860666e+01	-2.774106e+02
1.250000e-06	-3.402677e-06	-1.004047e-09	-1.831622e+01	-2.753620e+02
1.260000e-06	-3.348537e-06	-9.944938e-10	-1.802479e+01	-2.732818e+02
1.270000e-06	-3.294132e-06	-9.857660e-10	-1.773193e+01	-2.711691e+02
1.280000e-06	-3.239404e-06	-9.781145e-10	-1.743734e+01	-2.690233e+02
1.290000e-06	-3.184493e-06	-9.713228e-10	-1.714176e+01	-2.668436e+02
1.300000e-06	-3.129326e-06	-9.637596e-10	-1.684480e+01	-2.646293e+02
1.310000e-06	-3.073853e-06	-9.554784e-10	-1.654620e+01	-2.623798e+02
1.320000e-06	-3.018183e-06	-9.464508e-10	-1.624653e+01	-2.600945e+02
1.330000e-06	-2.962458e-06	-9.358861e-10	-1.594657e+01	-2.577728e+02
1.340000e-06	-2.906686e-06	-9.261616e-10	-1.564635e+01	-2.554142e+02
1.350000e-06	-2.850753e-06	-9.181906e-10	-1.534528e+01	-2.530182e+02
1.360000e-06	-2.794674e-06	-9.094206e-10	-1.504341e+01	-2.505845e+02
1.370000e-06	-2.738538e-06	-8.998303e-10	-1.474123e+01	-2.481128e+02
1.380000e-06	-2.682252e-06	-8.911888e-10	-1.443825e+01	-2.456027e+02
1.390000e-06	-2.625742e-06	-8.834388e-10	-1.413406e+01	-2.430540e+02
1.400000e-06	-2.569119e-06	-8.739765e-10	-1.382927e+01	-2.404665e+02
1.410000e-06	-2.512225e-06	-8.622881e-10	-1.352302e+01	-2.378403e+02
1.420000e-06	-2.454942e-06	-8.508704e-10	-1.321467e+01	-2.351750e+02
1.430000e-06	-2.397351e-06	-8.407052e-10	-1.290466e+01	-2.324708e+02
1.440000e-06	-2.339325e-06	-8.307509e-10	-1.259232e+01	-2.297277e+02
1.450000e-06	-2.280878e-06	-8.206492e-10	-1.227770e+01	-2.269455e+02
1.460000e-06	-2.222195e-06	-8.090373e-10	-1.196182e+01	-2.241243e+02
1.470000e-06	-2.163372e-06	-7.971001e-10	-1.164518e+01	-2.212642e+02
1.480000e-06	-2.104377e-06	-7.878134e-10	-1.132762e+01	-2.183650e+02
1.490000e-06	-2.045115e-06	-7.775044e-10	-1.100862e+01	-2.154266e+02
1.500000e-06	-1.985661e-06	-7.642127e-10	-1.068859e+01	-2.124491e+02
1.510000e-06	-1.926088e-06	-7.518904e-10	-1.036791e+01	-2.094320e+02
1.520000e-06	-1.866428e-06	-7.408857e-10	-1.004677e+01	-2.063752e+02
1.530000e-06	-1.806762e-06	-7.291643e-10	-9.725593e+00	-2.032781e+02
1.540000e-06	-1.747114e-06	-7.163124e-10	-9.404510e+00	-2.001403e+02
1.550000e-06	-1.687315e-06	-7.040174e-10	-9.082621e+00	-1.969610e+02
1.560000e-06	-1.627444e-06	-6.921436e-10	-8.760344e+00	-1.937394e+02
1.570000e-06	-1.567598e-06	-6.800322e-10	-8.438199e+00	-1.904746e+02
1.580000e-06	-1.507668e-06	-6.682395e-10	-8.115605e+00	-1.871652e+02
1.590000e-06	-1.447703e-06	-6.556196e-10	-7.792818e+00	-1.838101e+02
1.600000e-06	-1.387694e-06	-6.424515e-10	-7.469799e+00	-1.804077e+02
1.610000e-06	-1.327622e-06	-6.301247e-10	-7.146433e+00	-1.769562e+02
1.620000e-06	-1.267424e-06	-6.179882e-10	-6.822394e+00	-1.734539e+02
1.630000e-06	-1.207120e-06	-6.047810e-10	-6.497789e+00	-1.698986e+02
1.640000e-06	-1.146708e-06	-5.899470e-10	-6.172594e+00	-1.662883e+02
1.650000e-06	-1.086258e-06	-5.744271e-10	-5.847200e+00	-1.626206e+02
1.660000e-06	-1.025738e-06	-5.602578e-10	-5.521430e+00	-1.588932e+02
1.670000e-06	-9.650093e-07	-5.466168e-10	-5.194533e+00	-1.551035e+02
1.680000e-06	-9.042864e-07	-5.322519e-10	-4.867669e+00	-1.512490e+02
1.690000e-06	-8.435677e-07	-5.176027e-10	-4.540827e+00	-1.473272e+02
1.700000e-06	-7.826633e-07	-5.026018e-10	-4.212986e+00	-1.433356e+02
1.710000e-06	-7.215731e-07	-4.877909e-10	-3.884145e+00	-1.392717e+02
1.720000e-06	-6.604105e-07	-4.736551e-10	-3.554914e+00	-1.351332e+02
1.730000e-06	-5.992537e-07	-4.594055e-10	-3.225714e+00	-1.309177e+02
1.740000e-06	-5.382229e-07	-4.439110e-10	-2.897192e+00	-1.266234e+02
1.750000e-06	-4.771837e-07	-4.271383e-10	-2.568625e+00	-1.222482e+02
1.760000e-06	-4.159154e-07	-4.107030e-10	-2.238825e+00	-1.177908e+02
1.770000e-06	-3.545494e-07	-3.945081e-10	-1.908498e+00	-1.132498e+02
1.780000e-06	-2.932757e-07	-3.769798e-10	-1.578669e+00	-1.086244e+02
1.790000e-06	-2.319701e-07	-3.587645e-10	-1.248668e+00	-1.039141e+02
1.800000e-06	-1.706739e-07	-3.413279e-10	-9.187177e-01	-9.911877e+01
1.810000e-06	-1.094201e-07	-3.243760e-10	-5.889960e-01	-9.423876e+01
1.820000e-06	-4.811125e-08	-3.078119e-10	-2.589773e-01	-8.927490e+01
1.830000e-06	1.314605e-08	-2.910607e-10	7.076364e-02	-8.422850e+01
1.840000e-06	7.431602e-08	-2.735601e-10	4.000346e-01	-7.910138e+01
1.850000e-06	1.353527e-07	-2.554022e-10	7.285878e-01	-7.389584e+01
1.860000e-06	1.964478e-07	-2.359202e-10	1.057456e+00	-6.861469e+01
1.870000e-06	2.577031e-07	-2.152380e-10	1.387186e+00	-6.326125e+01
1.880000e-06	3.190341e-07	-1.949386e-10	1.717323e+00	-5.783930e+01
1.890000e-06	3.803130e-07	-1.757963e-10	2.047181e+00	-5.235312e+01
1.900000e-06	4.413760e-07	-1.569221e-10	2.375876e+00	-4.680738e+01
1.910000e-06	5.023610e-07	-1.367330e-10	2.704151e+00	-4.120718e+01
1.920000e-06	5.634305e-07	-1.161862e-10	3.032881e+00	-3.555799e+01
1.930000e-06	6.245097e-07	-9.532531e-11	3.361664e+00	-2.986559e+01
1.940000e-06	6.854675e-07	-7.326895e-11	3.689792e+00	-2.413603e+01
1.950000e-06	7.464041e-07	-5.133530e-11	4.017807e+00	-1.837560e+01
1.960000e-06	8.072646e-07	-3.067772e-11	4.345412e+00	-1.259074e+01
1.970000e-06	8.679055e-07	-1.117745e-11	4.671835e+00	-6.788019e+00
1.980000e-06	9.286195e-07	8.955050e-12	4.998652e+00	-9.740401e-01
1.990000e-06	9.893448e-07	2.960558e-11	5.325529e+00	4.844587e+00
2.000000e-06	1.050017e-06	5.036050e-11	5.652123e+00	1.066132e+01
2.010000e-06	1.110604e-06	7.140457e-11	5.978252e+00	1.646973e+01
2.020000e-06	1.171002e-06	9.207541e-11	6.303367e+00	2.226357e+01
2.030000e-06	1.231392e-06	1.118520e-10	6.628443e+00	2.803681e+01
2.040000e-06	1.291720e-06	1.325268e-10	6.953177e+00	3.378370e+01
2.050000e-06	1.351928e-06	1.547716e-10	7.277270e+00	3.949881e+01
2.060000e-06	1.412079e-06	1.764614e-10	7.601060e+00	4.517703e+01
2.070000e-06	1.472143e-06	1.972091e-10	7.924374e+00	5.081367e+01
2.080000e-06	1.532112e-06	2.176860e-10	8.247183e+00	5.640443e+01
2.090000e-06	1.592014e-06	2.384940e-10	8.569629e+00	6.194543e+01
2.100000e-06	1.651823e-06	2.594317e-10	8.891571e+00	6.743326e+01
2.110000e-06	1.711662e-06	2.792905e-10	9.213678e+00	7.286492e+01
2.120000e-06	1.771456e-06	2.983615e-10	9.535543e+00	7.823788e+01
2.130000e-06	1.831108e-06	3.175710e-10	9.856642e+00	8.355003e+01
2.140000e-06	1.890704e-06	3.377409e-10	1.017744e+01	8.879969e+01
2.150000e-06	1.950090e-06	3.582041e-10	1.049711e+01	9.398560e+01
2.160000e-06	2.009391e-06	3.768639e-10	1.081632e+01	9.910685e+01
2.170000e-06	2.068754e-06	3.946275e-10	1.113586e+01	1.041629e+02
2.180000e-06	2.127894e-06	4.127701e-10	1.145421e+01	1.091536e+02
2.190000e-06	2.186701e-06	4.307339e-10	1.177076e+01	1.140790e+02
2.200000e-06	2.245304e-06	4.488163e-10	1.208621e+01	1.189393e+02
2.210000e-06	2.303664e-06	4.667523e-10	1.240036e+01	1.237352e+02
2.220000e-06	2.361669e-06	4.843678e-10	1.271259e+01	1.284673e+02
2.230000e-06	2.419427e-06	5.012386e-10	1.302350e+01	1.331365e+02
2.240000e-06	2.476870e-06	5.182193e-10	1.333271e+01	1.377437e+02
2.250000e-06	2.533860e-06	5.358428e-10	1.363947e+01	1.422899e+02
2.260000e-06	2.590580e-06	5.524818e-10	1.394479e+01	1.467761e+02
2.270000e-06	2.647116e-06	5.689999e-10	1.424912e+01	1.512033e+02
2.280000e-06	2.703385e-06	5.856539e-10	1.455201e+01	1.555725e+02
2.290000e-06	2.759500e-06	6.009741e-10	1.485407e+01	1.598845e+02
2.300000e-06	2.815576e-06	6.156297e-10	1.515592e+01	1.641402e+02
2.310000e-06	2.871545e-06	6.304949e-10	1.545720e+01	1.683403e+02
2.320000e-06	2.927318e-06	6.455889e-10	1.575741e+01	1.724854e+02
2.330000e-06	2.982908e-06	6.607904e-10	1.605665e+01	1.765760e+02
2.340000e-06	3.038315e-06	6.757522e-10	1.635490e+01	1.806125e+02
2.350000e-06	3.093513e-06	6.901236e-10	1.665203e+01	1.845951e+02
2.360000e-06	3.148428e-06	7.042775e-10	1.694763e+01	1.885239e+02
2.370000e-06	3.203186e-06	7.189045e-10	1.724238e+01	1.923991e+02
2.380000e-06	3.257750e-06	7.329904e-10	1.753609e+01	1.962205e+02
2.390000e-06	3.312016e-06	7.463908e-10	1.782820e+01	1.999880e+02
2.400000e-06	3.366121e-06	7.608101e-10	1.811944e+01	2.037015e+02
2.410000e-06	3.419981e-06	7.749087e-10	1.840936e+01	2.073606e+02
2.420000e-06	3.473721e-06	7.875644e-10	1.869864e+01	2.109651e+02
2.430000e-06	3.527293e-06	8.006277e-10	1.898701e+01	2.145147e+02
2.440000e-06	3.580428e-06	8.134274e-10	1.927303e+01	2.180093e+02
2.450000e-06	3.633248e-06	8.252467e-10	1.955735e+01	2.214485e+02
2.460000e-06	3.686003e-06	8.369639e-10	1.984133e+01	2.248322e+02
2.470000e-06	3.738471e-06	8.488192e-10	2.012376e+01	2.281603e+02
2.480000e-06	3.790528e-06	8.602069e-10	2.040397e+01	2.314328e+02
2.490000e-06	3.842252e-06	8.703822e-10	2.068240e+01	2.346497e+02
2.500000e-06	3.893676e-06	8.802345e-10	2.095921e+01	2.378112e+02
2.510000e-06	3.944952e-06	8.906819e-10	2.123522e+01	2.409176e+02
2.520000e-06	3.995971e-06	9.017388e-10	2.150985e+01	2.439692e+02
2.530000e-06	4.046537e-06	9.130045e-10	2.178204e+01	2.469664e+02
2.540000e-06	4.096551e-06	9.238260e-10	2.205126e+01	2.499100e+02
2.550000e-06	4.146131e-06	9.337423e-10	2.231814e+01	2.528004e+02
2.560000e-06	4.195196e-06	9.428813e-10	2.258226e+01	2.556385e+02
2.570000e-06	4.243748e-06	9.520393e-10	2.284361e+01	2.584250e+02
2.580000e-06	4.292067e-06	9.612267e-10	2.310370e+01	2.611609e+02
2.590000e-06	4.340103e-06	9.703537e-10	2.336227e+01	2.638470e+02
2.600000e-06	4.387833e-06	9.796381e-10	2.361920e+01	2.664844e+02
2.610000e-06	4.435337e-06	9.896162e-10	2.387491e+01	2.690739e+02
2.620000e-06	4.482745e-06	9.999935e-10	2.413010e+01	2.716165e+02
2.630000e-06	4.529860e-06	1.009223e-09	2.438371e+01	2.741132e+02
2.640000e-06	4.576441e-06	1.017723e-09	2.463445e+01	2.765648e+02
2.650000e-06	4.622660e-06	1.026580e-09	2.488325e+01	2.789722e+02
2.660000e-06	4.668554e-06	1.034710e-09	2.513028e+01	2.813362e+02
2.670000e-06	4.714094e-06	1.042071e-09	2.537542e+01	2.836575e+02
2.680000e-06	4.759361e-06	1.049242e-09	2.561909e+01	2.859368e+02
2.690000e-06	4.804377e-06	1.056921e-09	2.586140e+01	2.881745e+02
2.700000e-06	4.849111e-06	1.065460e-09	2.610220e+01	2.903713e+02
2.710000e-06	4.893507e-06	1.073202e-09	2.634118e+01	2.925273e+02
2.720000e-06	4.937599e-06	1.079905e-09	2.657852e+01	2.946430e+02
2.730000e-06	4.981461e-06	1.087034e-09	2.681463e+01	2.967186e+02
2.740000e-06	5.025097e-06	1.094912e-09	2.704952e+01	2.987541e+02
2.750000e-06	5.068550e-06	1.103368e-09	2.728342e+01	3.007498e+02
2.760000e-06	5.111668e-06	1.111423e-09	2.751552e+01	3.027055e+02
2.770000e-06	5.154274e-06	1.118420e-09	2.774486e+01	3.046214e+02
2.780000e-06	5.196358e-06	1.124703e-09	2.797139e+01	3.064974e+02
2.790000e-06	5.237825e-06	1.130546e-09	2.819461e+01	3.083334e+02
2.800000e-06	5.278549e-06	1.137523e-09	2.841382e+01	3.101295e+02
2.810000e-06	5.318681e-06	1.145519e-09	2.862985e+01	3.118857e+02
2.820000e-06	5.358566e-06	1.153406e-09	2.884454e+01	3.136021e+02
2.830000e-06	5.398262e-06	1.161278e-09	2.905822e+01	3.152787e+02
2.840000e-06	5.437677e-06	1.168442e-09	2.927039e+01	3.169158e+02
2.850000e-06	5.476736e-06	1.174718e-09	2.948064e+01	3.185138e+02
2.860000e-06	5.515462e-06	1.180486e-09	2.968909e+01	3.200729e+02
2.870000e-06	5.553793e-06	1.185493e-09	2.989543e+01	3.215938e+02
2.880000e-06	5.591626e-06	1.190930e-09	3.009908e+01	3.230770e+02
2.890000e-06	5.629037e-06	1.197417e-09	3.030046e+01	3.245233e+02
2.900000e-06	5.666076e-06	1.204189e-09	3.049983e+01	3.259335e+02
